"time","x","y","position","velocity","acceleration","jerk","heading"
0,0,-2.75,0,0,0,0,0
0.02,0.00860233,-2.75,0.00860233,0.430117,21.5058,1075.29,0
0.04,0.0296355,-2.75,0.0296355,1.05166,31.0771,478.564,0
0.06,0.0666854,-2.75,0.0666854,1.8525,40.0418,448.236,0
0.08,0.118429,-2.75,0.118429,2.58718,36.7342,-165.379,0
0.1,0.185034,-2.75,0.185034,3.33025,37.1535,20.9625,0
0.12,0.266422,-2.75,0.266422,4.0694,36.9575,-9.8,0
0.14,0.362613,-2.75,0.362613,4.80955,37.0075,2.5,0
0.16,0.473612,-2.75,0.473612,5.54995,37.02,0.625,0
0.18,0.599402,-2.75,0.599402,6.2895,36.9775,-2.125,0
0.2,0.74,-2.75,0.74,7.0299,37.02,2.125,0
0.22,0.895407,-2.75,0.895407,7.77035,37.0225,0.125,0
0.24,1.06561,-2.75,1.06561,8.51015,36.99,-1.625,0
0.26,1.2506,-2.75,1.2506,9.2495,36.9675,-1.125,0
0.28,1.4504,-2.75,1.4504,9.99,37.025,2.875,0
0.3,1.665,-2.75,1.665,10.73,37,-1.25,0
0.32,1.8944,-2.75,1.8944,11.47,37,-1.87228e-10,0
0.34,2.1386,-2.75,2.1386,12.21,37,4.86722e-11,0
0.36,2.3976,-2.75,2.3976,12.95,37,2.0961e-10,0
0.38,2.6714,-2.75,2.6714,13.69,37,-2.98428e-10,0
0.4,2.96,-2.75,2.96,14.43,37,8.88178e-11,0
0.42,3.2634,-2.75,3.2634,15.17,37,1.65201e-10,0
0.44,3.5816,-2.75,3.5816,15.91,37,-2.13873e-10,0
0.46,3.9146,-2.75,3.9146,16.65,37,1.06581e-10,0
0.48,4.2624,-2.75,4.2624,17.39,37,1.25056e-10,0
0.5,4.625,-2.75,4.625,18.13,37,-3.606e-10,0
0.52,5.0024,-2.75,5.0024,18.87,37,2.30926e-10,0
0.54,5.3946,-2.75,5.3946,19.61,37,8.88178e-12,0
0.56,5.8016,-2.75,5.8016,20.35,37,-8.88178e-12,0
0.58,6.2234,-2.75,6.2234,21.09,37,3.03402e-10,0
0.6,6.66,-2.75,6.66,21.83,37,-5.87619e-10,0
0.62,7.1114,-2.75,7.1114,22.57,37,1.68754e-10,0
0.64,7.5776,-2.75,7.5776,23.31,37,2.30926e-10,0
0.66,8.0586,-2.75,8.0586,24.05,37,-2.22045e-10,0
0.68,8.5544,-2.75,8.5544,24.79,37,0,0
0.7,9.065,-2.75,9.065,25.53,37,5.87619e-10,0
0.72,9.5904,-2.75,9.5904,26.27,37,-7.29727e-10,0
0.74,10.1306,-2.75,10.1306,27.01,37,-7.99361e-11,0
0.76,10.6856,-2.75,10.6856,27.75,37,6.66134e-10,0
0.78,11.2554,-2.75,11.2554,28.49,37,-6.66134e-10,0
0.8,11.84,-2.75,11.84,29.23,37,4.44089e-10,0
0.82,12.4394,-2.75,12.4394,29.97,37,1.9682e-10,0
0.84,13.0536,-2.75,13.0536,30.71,37,-6.14264e-10,0
0.86,13.6826,-2.75,13.6826,31.45,37,4.17444e-10,0
0.88,14.3264,-2.75,14.3264,32.19,37,-4.44089e-10,0
0.9,14.985,-2.75,14.985,32.93,37,4.44089e-10,0
0.92,15.6584,-2.75,15.6584,33.67,37,0,0
0.94,16.3466,-2.75,16.3466,34.41,37,4.583e-11,0
0.96,17.0496,-2.75,17.0496,35.15,37,-8.13571e-11,0
0.98,17.7674,-2.75,17.7674,35.89,37,-8.52651e-10,0
1,18.5,-2.75,18.5,36.63,37,1.3145e-09,0
1.02,19.24,-2.75,19.24,37,18.5,-925,0
1.04,19.98,-2.75,19.98,37,8.88178e-12,-925,0
1.06,20.72,-2.75,20.72,37,-8.88178e-12,-8.88178e-10,0
1.08,21.46,-2.75,21.46,37,8.88178e-12,8.88178e-10,0
1.1,22.2,-2.75,22.2,37,-8.88178e-12,-8.88178e-10,0
1.12,22.94,-2.75,22.94,37,8.88178e-12,8.88178e-10,0
1.14,23.68,-2.75,23.68,37,1.1724e-11,1.42109e-10,0
1.16,24.42,-2.75,24.42,37,-1.1724e-11,-1.1724e-09,0
1.18,25.16,-2.75,25.16,37,-8.88178e-12,1.42109e-10,0
1.2,25.9,-2.75,25.9,37,0,4.44089e-10,0
1.22,26.64,-2.75,26.64,37,8.88178e-12,4.44089e-10,0
1.24,27.38,-2.75,27.38,37,-8.88178e-12,-8.88178e-10,0
1.26,28.12,-2.75,28.12,37,8.88178e-12,8.88178e-10,0
1.28,28.86,-2.75,28.86,37,-8.88178e-12,-8.88178e-10,0
1.3,29.6,-2.75,29.6,37,8.88178e-12,8.88178e-10,0
1.32,30.34,-2.75,30.34,37,-8.88178e-12,-8.88178e-10,0
1.34,31.08,-2.75,31.08,37,0,4.44089e-10,0
1.36,31.82,-2.75,31.82,37,8.88178e-12,4.44089e-10,0
1.38,32.56,-2.75,32.56,37,2.06057e-11,5.86198e-10,0
1.4,33.3,-2.75,33.3,37,-3.83693e-11,-2.94875e-09,0
1.42,34.04,-2.75,34.04,37,1.77636e-11,2.80664e-09,0
1.44,34.78,-2.75,34.78,37,0,-8.88178e-10,0
1.46,35.52,-2.75,35.52,37,0,0,0
1.48,36.26,-2.75,36.26,37,-1.77636e-11,-8.88178e-10,0
1.5,37,-2.75,37,37,1.77636e-11,1.77636e-09,0
1.52,37.74,-2.75,37.74,37,0,-8.88178e-10,0
1.54,38.48,-2.75,38.48,37,-1.77636e-11,-8.88178e-10,0
1.56,39.22,-2.75,39.22,37,1.77636e-11,1.77636e-09,0
1.58,39.96,-2.75,39.96,37,0,-8.88178e-10,0
1.6,40.7,-2.75,40.7,37,0,0,0
1.62,41.44,-2.75,41.44,37,-1.77636e-11,-8.88178e-10,0
1.64,42.18,-2.75,42.18,37,3.83693e-11,2.80664e-09,0
1.66,42.92,-2.75,42.92,37,-2.06057e-11,-2.94875e-09,0
1.68,43.66,-2.75,43.66,37,-1.77636e-11,1.42109e-10,0
1.7,44.4,-2.75,44.4,37,1.77636e-11,1.77636e-09,0
1.72,45.14,-2.75,45.14,37,0,-8.88178e-10,0
1.74,45.88,-2.75,45.88,37,0,0,0
1.76,46.62,-2.75,46.62,37,-1.77636e-11,-8.88178e-10,0
1.78,47.36,-2.75,47.36,37,1.77636e-11,1.77636e-09,0
1.8,48.1,-2.75,48.1,37,0,-8.88178e-10,0
1.82,48.84,-2.75,48.84,37,0,0,0
1.84,49.58,-2.75,49.58,37,-1.77636e-11,-8.88178e-10,0
1.86,50.32,-2.75,50.32,37,1.77636e-11,1.77636e-09,0
1.88,51.06,-2.75,51.06,37,2.06057e-11,1.42109e-10,0
1.9,51.8,-2.75,51.8,37,-3.83693e-11,-2.94875e-09,0
1.92,52.54,-2.75,52.54,37,1.77636e-11,2.80664e-09,0
1.94,53.28,-2.75,53.28,37,0,-8.88178e-10,0
1.96,54.02,-2.75,54.02,37,0,0,0
1.98,54.76,-2.75,54.76,37,-1.77636e-11,-8.88178e-10,0
2,55.5,-2.75,55.5,37,1.77636e-11,1.77636e-09,0
2.02,56.24,-2.75,56.24,37,0,-8.88178e-10,0
2.04,56.98,-2.75,56.98,37,-1.77636e-11,-8.88178e-10,0
2.06,57.72,-2.75,57.72,37,1.77636e-11,1.77636e-09,0
2.08,58.46,-2.75,58.46,37,0,-8.88178e-10,0
2.1,59.2,-2.75,59.2,37,0,0,0
2.12,59.94,-2.75,59.94,37,-1.77636e-11,-8.88178e-10,0
2.14,60.68,-2.75,60.68,37,1.77636e-11,1.77636e-09,0
2.16,61.42,-2.75,61.42,37,0,-8.88178e-10,0
2.18,62.16,-2.75,62.16,37,-1.77636e-11,-8.88178e-10,0
2.2,62.9,-2.75,62.9,37,1.77636e-11,1.77636e-09,0
2.22,63.64,-2.75,63.64,37,0,-8.88178e-10,0
2.24,64.38,-2.75,64.38,37,-1.77636e-11,-8.88178e-10,0
2.26,65.12,-2.75,65.12,37,7.67386e-11,4.72511e-09,0
2.28,65.86,-2.75,65.86,37,-7.67386e-11,-7.67386e-09,0
2.3,66.6,-2.75,66.6,37,0,3.83693e-09,0
2.32,67.34,-2.75,67.34,37,3.55271e-11,1.77636e-09,0
2.34,68.08,-2.75,68.08,37,-3.55271e-11,-3.55271e-09,0
2.36,68.82,-2.75,68.82,37,0,1.77636e-09,0
2.38,69.56,-2.75,69.56,37,3.55271e-11,1.77636e-09,0
2.4,70.3,-2.75,70.3,37,-3.55271e-11,-3.55271e-09,0
2.42,71.04,-2.75,71.04,37,3.55271e-11,3.55271e-09,0
2.44,71.78,-2.75,71.78,37,-3.55271e-11,-3.55271e-09,0
2.46,72.52,-2.75,72.52,37,0,1.77636e-09,0
2.48,73.26,-2.75,73.26,37,3.55271e-11,1.77636e-09,0
2.5,74,-2.75,74,37,-3.55271e-11,-3.55271e-09,0
2.52,74.74,-2.75,74.74,37,0,1.77636e-09,0
2.54,75.48,-2.75,75.48,37,3.55271e-11,1.77636e-09,0
2.56,76.22,-2.75,76.22,37,-3.55271e-11,-3.55271e-09,0
2.58,76.96,-2.75,76.96,37,0,1.77636e-09,0
2.6,77.7,-2.75,77.7,37,3.55271e-11,1.77636e-09,0
2.62,78.44,-2.75,78.44,37,-3.55271e-11,-3.55271e-09,0
2.64,79.18,-2.75,79.18,37,3.55271e-11,3.55271e-09,0
2.66,79.92,-2.75,79.92,37,-3.55271e-11,-3.55271e-09,0
2.68,80.66,-2.75,80.66,37,0,1.77636e-09,0
2.7,81.4,-2.75,81.4,37,3.55271e-11,1.77636e-09,0
2.72,82.1343,-2.75,82.1343,36.715,-14.25,-712.5,0
2.74,82.8539,-2.75,82.8539,35.98,-36.75,-1125,0
2.76,83.5587,-2.75,83.5587,35.24,-37,-12.5,0
2.78,84.2487,-2.75,84.2487,34.5,-37,-5.64313e-09,0
2.8,84.9239,-2.75,84.9239,33.76,-37,3.73035e-09,0
2.82,85.5843,-2.75,85.5843,33.02,-37,-1.77636e-09,0
2.84,86.2299,-2.75,86.2299,32.28,-37,1.77636e-09,0
2.86,86.8607,-2.75,86.8607,31.54,-37,-1.77636e-09,0
2.88,87.4767,-2.75,87.4767,30.8,-37,1.77636e-09,0
2.9,88.0779,-2.75,88.0779,30.06,-37,0,0
2.92,88.6643,-2.75,88.6643,29.32,-37,-1.76748e-09,0
2.94,89.2359,-2.75,89.2359,28.58,-37,1.76748e-09,0
2.96,89.7927,-2.75,89.7927,27.84,-37,-1.77636e-09,0
2.98,90.3347,-2.75,90.3347,27.1,-37,1.77636e-09,0
3,90.8619,-2.75,90.8619,26.36,-37,0,0
3.02,91.3743,-2.75,91.3743,25.62,-37,-1.76748e-09,0
3.04,91.8719,-2.75,91.8719,24.88,-37,-8.88178e-12,0
3.06,92.3547,-2.75,92.3547,24.14,-37,1.77636e-09,0
3.08,92.8227,-2.75,92.8227,23.4,-37,0,0
3.1,93.2759,-2.75,93.2759,22.66,-37,-1.77636e-09,0
3.12,93.7143,-2.75,93.7143,21.92,-37,1.78524e-09,0
3.14,94.1379,-2.75,94.1379,21.18,-37,-8.88178e-12,0
3.16,94.5467,-2.75,94.5467,20.44,-37,-1.77636e-09,0
3.18,94.9407,-2.75,94.9407,19.7,-37,1.77636e-09,0
3.2,95.3199,-2.75,95.3199,18.96,-37,-1.77636e-09,0
3.22,95.6843,-2.75,95.6843,18.22,-37,0,0
3.24,96.0339,-2.75,96.0339,17.48,-37,3.5616e-09,0
3.26,96.3687,-2.75,96.3687,16.74,-37,-2.6791e-09,0
3.28,96.6887,-2.75,96.6887,16,-37,-1.8062e-09,0
3.3,96.9939,-2.75,96.9939,15.26,-37,2.70006e-09,0
3.32,97.2843,-2.75,97.2843,14.52,-37,4.26326e-12,0
3.34,97.5599,-2.75,97.5599,13.78,-37,-1.78062e-09,0
3.36,97.8207,-2.75,97.8207,13.04,-37,1.77636e-09,0
3.38,98.0667,-2.75,98.0667,12.3,-37,-1.77209e-09,0
3.4,98.2979,-2.75,98.2979,11.56,-37,1.77209e-09,0
3.42,98.5143,-2.75,98.5143,10.82,-37,4.26326e-12,0
3.44,98.7159,-2.75,98.7159,10.08,-37,-1.78062e-09,0
3.46,98.9027,-2.75,98.9027,9.34,-37,0,0
3.48,99.0747,-2.75,99.0747,8.6,-37,3.55698e-09,0
3.5,99.2319,-2.75,99.2319,7.86,-37,-5.33333e-09,0
3.52,99.3743,-2.75,99.3743,7.12,-37,5.3312e-09,0
3.54,99.5019,-2.75,99.5019,6.38,-37,-3.55271e-09,0
3.56,99.6147,-2.75,99.6147,5.64,-37,-2.13163e-12,0
3.58,99.7127,-2.75,99.7127,4.9,-37,1.77849e-09,0
3.6,99.7959,-2.75,99.7959,4.16,-37,0,0
3.62,99.8642,-2.75,99.8642,3.415,-37.25,-12.5,0
3.64,99.9178,-2.75,99.9178,2.68,-36.75,25,0
3.66,99.9565,-2.75,99.9565,1.935,-37.25,-25,0
3.68,99.9804,-2.75,99.9804,1.195,-37,12.5,0
3.7,99.989,-2.75,99.989,0.43,-38.25,-62.5,0
