"time","x","y","position","velocity","acceleration","jerk","heading"
0,18.9474,147,0,0,0,0,0
0.02,19.1023,147,0.1549,7.745,387.25,19362.5,0
0.04,19.2572,147,0.3098,7.745,0,-19362.5,0
0.06,19.4121,147,0.4647,7.745,-8.83738e-12,-4.41869e-10,0
0.08,19.567,147,0.6196,7.745,8.74856e-12,8.79297e-10,0
0.1,19.722,147,0.7746,7.75,0.25,12.5,0
0.12,19.8769,147,0.9295,7.745,-0.25,-25,0
0.14,20.1512,147,1.2038,13.715,298.5,14937.5,0
0.16,20.5252,147,1.5778,18.7,249.25,-2462.5,0
0.18,20.8992,147,1.9518,18.7,-8.88178e-12,-12462.5,0
0.2,21.3721,147,2.4247,23.645,247.25,12362.5,0
0.22,21.8595,147,2.9121,24.37,36.25,-10550,0
0.24,22.4213,147,3.4739,28.09,186,7487.5,0
0.26,23.0065,147,4.0591,29.26,58.5,-6375,0
0.28,23.6627,147,4.7153,32.81,177.5,5950,0
0.3,24.3584,147,5.411,34.785,98.75,-3937.5,0
0.32,25.0962,147,6.1488,36.89,105.25,325,0
0.34,25.8856,147,6.9382,39.47,129,1187.5,0
0.36,26.7291,147,7.7817,42.175,135.25,312.5,0
0.38,27.6179,147,8.6705,44.44,113.25,-1100,0
0.4,28.5537,147,9.6063,46.79,117.5,212.5,0
0.42,29.5371,147,10.5897,49.17,119,75,0
0.44,30.5685,147,11.6211,51.57,120,50,0
0.46,31.6476,147,12.7002,53.955,119.25,-37.5,0
0.48,32.774,147,13.8266,56.32,118.25,-50,0
0.5,33.9474,147,15,58.67,117.5,-37.5,0
0.52,35.174,147,16.2266,61.33,133,775,0
0.54,36.4469,147,17.4995,63.645,115.75,-862.5,0
0.56,37.7654,147,18.818,65.925,114,-87.5,0
0.58,39.1332,147,20.1858,68.39,123.25,462.5,0
0.6,40.5502,147,21.6028,70.85,123,-12.5,0
0.62,42.012,147,23.0646,73.09,112,-550,0
0.64,43.5259,147,24.5785,75.695,130.25,912.5,0
0.66,45.0845,147,26.1371,77.93,111.75,-925,0
0.68,46.6931,147,27.7457,80.43,125,662.5,0
0.7,48.3494,147,29.402,82.815,119.25,-287.5,0
0.72,50.0521,147,31.1047,85.135,116,-162.5,0
0.74,51.8043,147,32.8569,87.61,123.75,387.5,0
0.76,53.605,147,34.6576,90.035,121.25,-125,0
0.78,55.4531,147,36.5057,92.405,118.5,-137.5,0
0.8,57.3489,147,38.4015,94.79,119.25,37.5,0
0.82,59.2928,147,40.3454,97.195,120.25,50,0
0.84,61.2847,147,42.3373,99.595,120,-12.5,0
0.86,63.3247,147,44.3773,102,120.25,12.5,0
0.88,65.4127,147,46.4653,104.4,120,-12.5,0
0.9,67.5486,147,48.6012,106.795,119.75,-12.5,0
0.92,69.7322,147,50.7848,109.18,119.25,-25,0
0.94,71.9634,147,53.016,111.56,119,-12.5,0
0.96,74.2443,147,55.2969,114.045,124.25,262.5,0
0.98,76.577,147,57.6296,116.636,129.527,263.862,0.0203219
1,78.969,147.002,60.0216,119.602,148.319,939.591,0.0954132
1.02,81.374,147.009,62.4266,120.248,32.2861,-5801.65,0.219889
1.04,83.7376,147.02,64.7902,118.18,-103.406,-6784.58,0.36694
1.06,86.0555,147.039,67.1082,115.901,-113.917,-525.598,0.52099
1.08,88.322,147.062,69.3748,113.331,-128.533,-730.799,0.66772
1.1,90.5369,147.09,71.5899,110.752,-128.923,-19.481,0.796247
1.12,92.6978,147.123,73.751,108.058,-134.704,-289.07,0.898145
1.14,94.8033,147.157,75.8568,105.288,-138.509,-190.213,0.966809
1.16,96.8522,147.193,77.9061,102.464,-141.171,-133.112,0.99797
1.18,98.8438,147.227,79.8979,99.593,-143.57,-119.953,0.98814
1.2,100.777,147.26,81.8315,96.6791,-145.693,-106.139,0.934822
1.22,102.653,147.289,83.7074,93.7943,-144.242,72.5171,0.83631
1.24,104.47,147.314,85.5247,90.866,-146.415,-108.603,0.691531
1.26,106.229,147.332,87.2843,87.981,-144.247,108.358,0.499901
1.28,107.93,147.344,88.9851,85.0395,-147.076,-141.453,0.260797
1.3,109.569,147.348,90.6243,81.9571,-154.122,-352.265,-0.0250797
1.32,111.154,147.343,92.2086,79.2143,-137.137,849.259,-0.354402
1.34,112.679,147.329,93.7337,76.2593,-147.751,-530.705,-0.732922
1.36,114.141,147.305,95.1958,73.1026,-157.836,-504.263,-1.16557
1.38,115.55,147.271,96.6052,70.4684,-131.71,1306.32,-1.63742
1.4,116.895,147.227,97.9514,67.3113,-157.857,-1307.39,-2.15556
1.42,118.186,147.173,99.243,64.5815,-136.486,1068.55,-2.71811
1.44,119.416,147.108,100.475,61.6196,-148.097,-580.503,-3.31973
1.46,120.589,147.034,101.651,58.7583,-143.065,251.585,-3.96516
1.48,121.705,146.95,102.769,55.941,-140.867,109.912,-4.65623
1.5,122.765,146.857,103.834,53.2415,-134.975,294.575,-5.37394
1.52,123.761,146.758,104.835,50.0371,-160.218,-1262.15,-6.14126
1.54,124.707,146.649,105.787,47.5797,-122.87,1867.42,-6.93364
1.56,125.603,146.534,106.69,45.1747,-120.251,130.931,-7.76395
1.58,126.448,146.413,107.544,42.7128,-123.095,-142.169,-8.62504
1.6,127.247,146.286,108.353,40.4419,-113.545,477.488,-9.51858
1.62,128.001,146.154,109.118,38.2429,-109.953,179.589,-10.4524
1.64,128.714,146.017,109.845,36.3295,-95.6667,714.312,-11.406
1.66,129.387,145.875,110.532,34.392,-96.875,-60.4153,-12.3965
1.68,130.022,145.73,111.183,32.54,-92.6016,213.672,-13.4296
1.7,130.624,145.582,111.803,31.0034,-76.8272,788.718,-14.4744
1.72,131.189,145.43,112.389,29.2884,-85.7541,-446.341,-15.5619
1.74,131.717,145.278,112.938,27.4667,-91.0809,-266.345,-16.6951
1.76,132.219,145.122,113.463,26.2457,-61.054,1501.35,-17.843
1.78,132.692,144.966,113.962,24.9294,-65.8123,-237.915,-19.017
1.8,133.139,144.807,114.436,23.7196,-60.4884,266.196,-20.2286
1.82,133.55,144.649,114.877,22.0203,-84.9676,-1223.96,-21.4864
1.84,133.941,144.492,115.298,21.0645,-47.7889,1858.94,-22.7577
1.86,134.313,144.331,115.703,20.2412,-41.1671,331.093,-24.0471
1.88,134.657,144.173,116.082,18.9662,-63.7472,-1129.01,-25.3729
1.9,134.977,144.017,116.437,17.7539,-60.6149,156.617,-26.741
1.92,135.281,143.86,116.78,17.1398,-30.7077,1495.36,-28.1279
1.94,135.565,143.704,117.104,16.2043,-46.7719,-803.211,-29.5322
1.96,135.831,143.55,117.412,15.3848,-40.9787,289.659,-30.9549
1.98,136.086,143.393,117.711,14.9543,-21.5231,972.784,-32.3913
2,136.317,143.242,117.987,13.8019,-57.6199,-1804.84,-33.8788
2.02,136.538,143.09,118.255,13.3833,-20.9289,1834.55,-35.3765
2.04,136.746,142.938,118.513,12.9017,-24.0818,-157.646,-36.8857
2.06,136.942,142.787,118.76,12.3828,-25.9449,-93.1572,-38.4089
2.08,137.131,142.633,119.003,12.1517,-11.5563,719.432,-39.9377
2.1,137.308,142.482,119.236,11.6421,-25.48,-696.185,-41.4839
2.12,137.478,142.327,119.466,11.4931,-7.4472,901.639,-43.0386
2.14,137.638,142.174,119.688,11.1105,-19.1299,-584.136,-44.606
2.16,137.794,142.016,119.91,11.098,-0.625412,925.225,-46.174
2.18,137.944,141.854,120.131,11.0428,-2.76252,-106.855,-47.7422
2.2,138.091,141.689,120.352,11.0422,-0.0264093,136.805,-49.3105
2.22,138.234,141.518,120.574,11.106,3.19011,160.826,-50.8783
2.24,138.372,141.342,120.798,11.2181,5.60328,120.659,-52.4439
2.26,138.51,141.158,121.028,11.4776,12.9739,368.533,-53.9982
2.28,138.645,140.966,121.263,11.752,13.7216,37.385,-55.54
2.3,138.78,140.764,121.506,12.1644,20.6171,344.77,-57.0678
2.32,138.912,140.553,121.755,12.4318,13.3712,-362.292,-58.5901
2.34,139.045,140.328,122.016,13.0508,30.9492,878.901,-60.0974
2.36,139.177,140.093,122.286,13.4872,21.8191,-456.506,-61.5901
2.38,139.306,139.844,122.567,14.0431,27.7979,298.941,-63.0629
2.4,139.44,139.573,122.869,15.106,53.1456,1267.38,-64.4968
2.42,139.57,139.29,123.18,15.5553,22.4654,-1534.01,-65.9161
2.44,139.7,138.987,123.51,16.5108,47.7756,1265.51,-67.3173
2.46,139.83,138.665,123.857,17.3576,42.3383,-271.866,-68.7001
2.48,139.956,138.327,124.218,18.0445,34.3438,-399.723,-70.0607
2.5,140.086,137.956,124.611,19.6304,79.2965,2247.63,-71.3565
2.52,140.213,137.563,125.024,20.6845,52.7029,-1329.68,-72.6372
2.54,140.338,137.149,125.456,21.6001,45.7797,-346.16,-73.904
2.56,140.458,136.712,125.909,22.6587,52.9301,357.517,-75.153
2.58,140.58,136.23,126.406,24.8295,108.54,2780.48,-76.3198
2.6,140.697,135.724,126.926,25.9753,57.2911,-2562.43,-77.4737
2.62,140.81,135.188,127.474,27.4058,71.5265,711.767,-78.6072
2.64,140.918,134.618,128.054,28.9921,79.314,389.378,-79.7037
2.66,141.023,134.008,128.673,30.9809,99.4409,1006.34,-80.7428
2.68,141.123,133.357,129.332,32.9272,97.3116,-106.465,-81.7773
2.7,141.217,132.657,130.038,35.2972,118.5,1059.45,-82.7443
2.72,141.305,131.912,130.788,37.5166,110.97,-376.507,-83.6801
2.74,141.387,131.118,131.586,39.9253,120.437,473.335,-84.5871
2.76,141.46,130.281,132.427,42.0145,104.459,-798.9,-85.4138
2.78,141.52,129.447,133.263,41.7957,-10.9419,-5770.05,-86.1751
2.8,141.57,128.627,134.084,41.0682,-36.3701,-1271.41,-86.8029
2.82,141.61,127.839,134.873,39.4366,-81.5818,-2260.58,-87.3557
2.84,141.641,127.079,135.633,38.0236,-70.6515,546.515,-87.8241
2.86,141.666,126.35,136.363,36.511,-75.6288,-248.867,-88.2219
2.88,141.685,125.653,137.061,34.8526,-82.9204,-364.579,-88.5667
2.9,141.7,124.992,137.721,33.0472,-90.2682,-367.392,-88.8542
2.92,141.711,124.376,138.337,30.8017,-112.276,-1100.37,-89.0793
2.94,141.718,123.789,138.925,29.3574,-72.2144,2003.06,-89.2772
2.96,141.725,123.248,139.465,27.0348,-116.132,-2195.88,-89.4418
2.98,141.728,122.752,139.962,24.8418,-109.652,324.011,-89.566
3,141.731,122.286,140.427,23.2659,-78.7922,1542.98,-89.6616
3.02,141.733,121.876,140.838,20.5029,-138.152,-2967.99,-89.7407
3.04,141.734,121.517,141.197,17.9638,-126.954,559.924,-89.8056
3.06,141.735,121.158,141.556,17.9649,0.056692,6350.52,-89.8704
3.08,141.736,120.977,141.737,9.04707,-445.893,-22297.5,-89.8883
3.1,141.736,120.824,141.89,7.63428,-70.6391,18762.7,-89.8985
3.12,141.736,120.671,142.042,7.63315,-0.056725,3529.12,-89.9088
3.14,141.736,120.519,142.195,7.63428,0.0567214,5.67232,-89.919
3.16,141.737,120.366,142.348,7.63445,0.00813499,-2.42932,-89.9292
3.18,141.737,120.213,142.5,7.63428,-0.00813776,-0.813638,-89.9394
