"time","x","y","position","velocity","acceleration","jerk","heading"
0,195.637,116.896,0,0,0,0,90
0.02,195.637,117.03,0.133859,6.69293,334.647,16732.3,89.9994
0.04,195.637,117.164,0.267717,6.69293,7.10987e-11,-16732.3,89.9988
0.06,195.637,117.298,0.401599,6.69411,0.0589049,2.94524,89.9983
0.08,195.637,117.432,0.536458,6.74293,2.4411,119.11,89.9977
0.1,195.637,117.566,0.670317,6.69293,-2.5,-247.055,89.9971
0.12,195.637,117.7,0.804175,6.69293,1.7808e-10,125,89.9965
0.14,195.637,117.834,0.938034,6.69293,2.84039e-10,5.29798e-09,89.9959
0.16,195.637,118.071,1.17549,11.8729,258.999,12949.9,89.9936
0.18,195.637,118.395,1.49862,16.1564,214.175,-2241.16,89.9899
0.2,195.637,118.718,1.82172,16.1552,-0.0589048,-10711.7,89.9861
0.22,195.637,119.085,2.18938,18.3828,111.381,5571.99,89.9804
0.24,195.637,119.506,2.60952,21.0069,131.204,991.164,89.9725
0.26,195.638,119.933,3.03657,21.3523,17.2673,-5696.84,89.9642
0.28,195.638,120.431,3.53453,24.898,177.287,8001.01,89.9513
0.3,195.638,120.934,4.03837,25.1921,14.7055,-8129.1,89.9379
0.32,195.639,121.498,4.60199,28.1809,149.439,6736.68,89.9193
0.34,195.64,122.082,5.18611,29.2062,51.2629,-4908.81,89.8986
0.36,195.641,122.704,5.80824,31.1067,95.0259,2188.15,89.8737
0.38,195.643,123.367,6.47118,33.1467,102.001,348.773,89.8437
0.4,195.645,124.056,7.16022,34.4519,65.2613,-1837,89.8099
0.42,195.648,124.782,7.88601,36.2897,91.8862,1331.24,89.7708
0.44,195.651,125.549,8.65294,38.3466,102.846,547.975,89.7238
0.46,195.655,126.347,9.45144,39.9249,78.917,-1196.43,89.6707
0.48,195.661,127.178,10.2823,41.5442,80.9642,102.358,89.6107
0.5,195.667,128.042,11.1464,43.2046,83.0211,102.847,89.5431
0.52,195.674,128.941,12.0455,44.954,87.4703,222.459,89.4669
0.54,195.684,129.874,12.9784,46.6454,84.5658,-145.225,89.3814
0.56,195.695,130.842,13.9459,48.3744,86.4544,94.432,89.2856
0.58,195.709,131.842,14.9468,50.0454,83.5476,-145.343,89.1787
0.6,195.724,132.876,15.9809,51.7053,82.9939,-27.6811,89.0598
0.62,195.743,133.943,17.048,53.3543,82.452,-27.0964,88.9279
0.64,195.765,135.043,18.1479,54.9928,81.9254,-26.3289,88.782
0.66,195.79,136.175,19.2802,56.6154,81.1267,-39.9393,88.6208
0.68,195.82,137.337,20.4427,58.1288,75.6739,-272.636,88.4433
0.7,195.855,138.531,21.6373,59.7277,79.9414,213.373,88.2482
0.72,195.894,139.76,22.867,61.487,87.965,401.182,88.0321
0.74,195.94,141.018,24.1253,62.9147,71.3884,-828.831,87.7962
0.76,195.993,142.303,25.4119,64.3285,70.6865,-35.0961,87.5392
0.78,196.053,143.624,26.7334,66.0757,87.3628,833.816,87.2552
0.8,196.121,144.969,28.081,67.3786,65.1432,-1110.98,86.9443
0.82,196.198,146.346,29.4601,68.957,78.9194,688.809,86.6083
0.84,196.286,147.751,30.8677,70.3807,71.1867,-386.634,86.2421
0.86,196.384,149.184,32.3042,71.8214,72.0374,42.5376,85.8424
0.88,196.496,150.644,33.7679,73.1871,68.2827,-187.737,85.4104
0.9,196.621,152.128,35.2579,74.5013,65.7101,-128.629,84.9449
0.92,196.758,153.607,36.743,74.2526,-12.4361,-3907.31,84.4538
0.94,196.905,155.046,38.1894,72.3234,-96.4571,-4201.05,83.9461
0.96,197.059,156.453,39.6048,70.7697,-77.6891,938.403,83.4291
0.98,197.225,157.828,40.9895,69.2326,-76.8532,41.7964,82.9023
1,197.398,159.176,42.3482,67.9373,-64.7623,604.543,82.3656
1.02,197.583,160.5,43.6855,66.8609,-53.8241,546.911,81.8233
1.04,197.777,161.808,45.008,66.1272,-36.6806,857.172,81.2751
1.06,197.981,163.103,46.3186,65.5285,-29.938,337.131,80.7229
1.08,198.198,164.39,47.6239,65.2653,-13.1597,838.917,80.1688
1.1,198.427,165.674,48.9286,65.237,-1.41668,587.15,79.6147
1.12,198.67,166.962,50.2393,65.5351,14.9092,816.294,79.0619
1.14,198.927,168.26,51.5621,66.1409,30.2878,768.93,78.5151
1.16,199.201,169.575,52.9054,67.1654,51.2227,1046.74,77.9735
1.18,199.493,170.916,54.2777,68.6142,72.4435,1061.04,77.4426
1.2,199.806,172.29,55.6867,70.4481,91.6943,962.54,76.9237
1.22,200.14,173.701,57.1371,72.5214,103.663,598.441,76.4242
1.24,200.496,175.149,58.6281,74.5498,101.421,-112.109,75.9512
1.26,200.876,176.638,60.1649,76.8396,114.488,653.363,75.5099
1.28,201.277,178.168,61.7461,79.0605,111.049,-171.949,75.1085
1.3,201.7,179.738,63.3724,81.3126,112.601,77.5844,74.7493
1.32,202.145,181.352,65.0471,83.7354,121.14,426.946,74.4383
1.34,202.611,183.01,66.769,86.0939,117.927,-160.628,74.1814
1.36,203.091,184.694,68.5198,87.5412,72.3632,-2278.2,73.9763
1.38,203.581,186.387,70.283,88.1615,31.0158,-2067.37,73.8209
1.4,204.078,188.093,72.059,88.802,32.0276,50.5917,73.7204
1.42,204.578,189.804,73.8423,89.1636,18.0787,-697.447,73.6657
1.44,205.075,191.496,75.6057,88.1704,-49.6577,-3386.82,73.6479
1.46,205.564,193.162,77.342,86.814,-67.8231,-908.268,73.6613
1.48,206.044,194.8,79.0486,85.3322,-74.0901,-313.348,73.7046
1.5,206.512,196.408,80.7232,83.7281,-80.2028,-305.634,73.7698
1.52,206.97,197.986,82.3664,82.1598,-78.4151,89.3811,73.8494
1.54,207.417,199.532,83.9756,80.4581,-85.0882,-333.654,73.9414
1.56,207.852,201.046,85.5515,78.7975,-83.0298,102.922,74.0423
1.58,208.275,202.53,87.0938,77.1121,-84.2703,-62.027,74.1488
1.6,208.684,203.977,88.5983,75.2258,-94.3106,-502.013,74.2584
1.62,209.082,205.394,90.0694,73.5555,-83.5175,539.651,74.3696
1.64,209.467,206.775,91.5032,71.6903,-93.2575,-486.996,74.4804
1.66,209.84,208.122,92.9007,69.8753,-90.7532,125.213,74.5898
1.68,210.2,209.435,94.2626,68.0957,-88.9791,88.703,74.6967
1.7,210.549,210.712,95.5868,66.2093,-94.3184,-266.961,74.8002
1.72,210.885,211.954,96.873,64.3126,-94.8377,-25.9675,74.8994
1.74,211.21,213.162,98.1236,62.5268,-89.2895,277.411,74.9944
1.76,211.523,214.335,99.3383,60.7365,-89.5165,-11.3525,75.0848
1.78,211.825,215.474,100.516,58.8933,-92.1592,-132.134,75.1702
1.8,212.115,216.573,101.653,56.837,-102.812,-532.624,75.25
1.82,212.395,217.638,102.754,55.0552,-89.0908,686.043,75.3248
1.84,212.664,218.667,103.818,53.1756,-93.9834,-244.628,75.3945
1.86,212.923,219.661,104.844,51.3443,-91.5626,121.04,75.4591
1.88,213.17,220.619,105.834,49.5006,-92.1858,-31.1587,75.5186
1.9,213.408,221.543,106.788,47.6832,-90.8711,65.7349,75.5731
1.92,213.636,222.431,107.705,45.858,-91.2579,-19.341,75.623
1.94,213.855,223.283,108.585,43.9969,-93.0562,-89.9137,75.6683
1.96,214.062,224.095,109.423,41.9137,-104.16,-555.204,75.7087
1.98,214.259,224.873,110.225,40.0946,-90.955,660.261,75.745
2,214.448,225.616,110.992,38.3556,-86.9464,200.431,75.7778
2.02,214.629,226.33,111.729,36.8141,-77.0768,493.481,75.8074
2.04,214.797,226.999,112.418,34.4835,-116.53,-1972.67,75.8327
2.06,214.958,227.632,113.071,32.6523,-91.5597,1248.52,75.8549
2.08,215.112,228.244,113.702,31.5384,-55.694,1793.28,75.8752
2.1,215.251,228.798,114.274,28.5871,-147.569,-4593.73,75.891
2.12,215.386,229.333,114.826,27.6028,-49.212,4917.83,75.9056
2.14,215.508,229.822,115.33,25.1871,-120.788,-3578.8,75.9169
2.16,215.625,230.287,115.809,23.9857,-60.0696,3035.91,75.9271
2.18,215.727,230.698,116.233,21.1635,-141.107,-4051.88,75.9345
2.2,215.831,231.11,116.657,21.2254,3.09112,7209.92,75.942
2.22,215.911,231.432,116.989,16.5904,-231.747,-11741.9,75.9462
2.24,215.99,231.747,117.314,16.2364,-17.701,10702.3,75.9502
2.26,216.069,232.062,117.639,16.2364,-2.06864e-07,885.048,75.9542
2.28,216.109,232.222,117.804,8.2627,-398.685,-19934.2,75.9556
2.3,216.142,232.352,117.938,6.70463,-77.9037,16039,75.9565
2.32,216.175,232.482,118.072,6.71676,0.606336,3925.5,75.9574
2.34,216.207,232.613,118.206,6.70463,-0.606336,-60.6336,75.9583
2.36,216.24,232.743,118.341,6.71676,0.606335,60.6335,75.9592
2.38,216.272,232.874,118.476,6.75319,1.82173,60.7696,75.9601
2.4,216.305,233.004,118.61,6.71676,-1.82173,-182.173,75.961
