"time","x","y","position","velocity","acceleration","jerk","heading"
0,0,2.75,0,0,0,0,0
0.02,0.00860207,2.75,0.00860207,0.430103,21.5052,1075.26,5.45335e-06
0.04,0.0296346,2.75,0.0296346,1.05163,31.0762,478.549,1.87871e-05
0.06,0.0666834,2.75,0.0666834,1.85244,40.0406,448.223,4.22745e-05
0.08,0.118425,2.75,0.118425,2.5871,36.7331,-165.374,7.50767e-05
0.1,0.185028,2.75,0.185028,3.33015,37.1524,20.9619,0.0001173
0.12,0.266414,2.75,0.266414,4.06928,36.9564,-9.7997,0.000168895
0.14,0.362602,2.75,0.362602,4.8094,37.0064,2.49992,0.000229875
0.16,0.473598,2.75,0.473598,5.54978,37.0189,0.624994,0.000300241
0.18,0.599384,2.75,0.599384,6.28931,36.9764,-2.12495,0.000379985
0.2,0.739972,2.75,0.739972,7.02941,37.0049,1.42384,0.000585975
0.22,0.895364,2.75,0.895364,7.76962,37.0106,0.285651,0.000891434
0.24,1.06555,2.75001,1.06555,8.50935,36.9865,-1.20268,0.00122597
0.26,1.25052,2.75001,1.25052,9.24863,36.964,-1.12498,0.00158958
0.28,1.45029,2.75002,1.45029,9.98856,36.9965,1.6264,0.00219038
0.3,1.66486,2.75003,1.66486,10.7283,36.9848,-0.58932,0.00291825
0.32,1.89422,2.75004,1.89422,11.4681,36.994,0.461314,0.0036963
0.34,2.13837,2.75006,2.13837,12.2073,36.9608,-1.65749,0.0048008
0.36,2.39731,2.75008,2.39731,12.9469,36.9799,0.95402,0.00607274
0.38,2.67104,2.75011,2.67104,13.6865,36.9792,-0.0339888,0.00751779
0.4,2.95955,2.75016,2.95955,14.4255,36.9475,-1.58424,0.00940002
0.42,3.26285,2.75021,3.26285,15.1652,36.9878,2.01371,0.0113838
0.44,3.58093,2.75028,3.58093,15.9037,36.9243,-3.17827,0.0139989
0.46,3.9138,2.75037,3.9138,16.6434,36.9846,3.01747,0.0167424
0.48,4.26143,2.75048,4.26143,17.3817,36.9117,-3.6433,0.0202216
0.5,4.62385,2.75062,4.62385,18.121,36.9685,2.84053,0.0239631
0.52,5.00103,2.75079,5.00103,18.8592,36.9104,-2.90511,0.0284512
0.54,5.39299,2.751,5.39299,19.598,36.9374,1.3499,0.033461
0.56,5.79972,2.75126,5.79972,20.3365,36.9245,-0.648244,0.0391007
0.58,6.22121,2.75157,6.22121,21.0742,36.8888,-1.78258,0.0456676
0.6,6.65746,2.75194,6.65746,21.8126,36.9199,1.55123,0.0529034
0.62,7.10847,2.75239,7.10847,22.5505,36.8912,-1.43124,0.061047
0.64,7.57422,2.75292,7.57422,23.2877,36.8614,-1.49135,0.0703474
0.66,8.05473,2.75355,8.05473,24.0254,36.8837,1.11452,0.0806194
0.68,8.54999,2.7543,8.54999,24.7628,36.8702,-0.674112,0.0919761
0.7,9.05997,2.75517,9.05998,25.4995,36.8355,-1.73724,0.104708
0.72,9.58469,2.75619,9.5847,26.2359,36.8216,-0.694303,0.118932
0.74,10.1241,2.75738,10.1241,26.9725,36.8273,0.285634,0.134602
0.76,10.6783,2.75877,10.6783,27.7087,36.8107,-0.828535,0.151858
0.78,11.2472,2.76037,11.2472,28.4446,36.7938,-0.843681,0.170843
0.8,11.8308,2.76221,11.8308,29.1801,36.7761,-0.888131,0.191708
0.82,12.4291,2.76433,12.4291,29.9152,36.7577,-0.919959,0.21461
0.84,13.0421,2.76676,13.0421,30.65,36.7384,-0.96276,0.239714
0.86,13.6698,2.76953,13.6698,31.3842,36.7116,-1.34054,0.267249
0.88,14.3121,2.77269,14.3122,32.1183,36.7026,-0.451017,0.297297
0.9,14.9692,2.77629,14.9692,32.8519,36.683,-0.982048,0.33003
0.92,15.6408,2.78036,15.6408,33.5802,36.412,-13.5491,0.365633
0.94,16.3271,2.78497,16.3272,34.3177,36.8782,23.3091,0.4044
0.96,17.0281,2.79017,17.0282,35.0499,36.6101,-13.4013,0.446496
0.98,17.7437,2.79603,17.7438,35.7817,36.589,-1.05722,0.492115
1,18.4739,2.80261,18.4741,36.513,36.5656,-1.16844,0.541473
1.02,19.2113,2.80991,19.2115,36.8702,17.8567,-935.447,0.594245
1.04,19.9486,2.81791,19.9488,36.8684,-0.0909727,-897.383,0.65001
1.06,20.6857,2.82665,20.686,36.8564,-0.595916,-25.2472,0.708833
1.08,21.4227,2.83616,21.423,36.8544,-0.101074,24.7421,0.770783
1.1,22.1595,2.84649,22.1599,36.8422,-0.612654,-25.579,0.835986
1.12,22.8961,2.85767,22.8966,36.8342,-0.395721,10.8466,0.90475
1.14,23.6325,2.86976,23.6331,36.8269,-0.365503,1.51091,0.976859
1.16,24.3688,2.88279,24.3695,36.8196,-0.368822,-0.165951,1.05238
1.18,25.1049,2.89681,25.1057,36.8121,-0.374062,-0.261971,1.1314
1.2,25.8407,2.91187,25.8417,36.7996,-0.623173,-12.4555,1.21396
1.22,26.5764,2.928,26.5776,36.792,-0.379018,12.2077,1.30016
1.24,27.3119,2.94527,27.3133,36.7844,-0.379393,-0.0187695,1.39006
1.26,28.0472,2.96371,28.0488,36.7759,-0.428287,-2.44468,1.48413
1.28,28.7822,2.98337,28.784,36.7631,-0.63883,-10.5271,1.58211
1.3,29.517,3.00431,29.5192,36.7554,-0.38384,12.7495,1.68403
1.32,30.2516,3.02658,30.2541,36.7477,-0.385029,-0.0594802,1.78998
1.34,30.9859,3.05023,30.9888,36.735,-0.63529,-12.513,1.90005
1.36,31.72,3.0753,31.7234,36.7274,-0.381433,12.6929,2.0143
1.38,32.4539,3.10187,32.4577,36.7147,-0.632415,-12.5491,2.13284
1.4,33.1873,3.12997,33.1917,36.701,-0.685291,-2.6438,2.25622
1.42,33.9206,3.15967,33.9255,36.6934,-0.381774,15.1758,2.38411
1.44,34.6537,3.19103,34.6593,36.6859,-0.372635,0.456933,2.51656
1.46,35.3863,3.2241,35.3926,36.6686,-0.867764,-24.7564,2.65367
1.48,36.1187,3.25894,36.1259,36.6613,-0.362783,25.249,2.79554
1.5,36.8506,3.29561,36.8587,36.6442,-0.855362,-24.6289,2.94227
1.52,37.5824,3.33419,37.5915,36.6367,-0.374211,24.0575,3.09418
1.54,38.3137,3.37472,38.324,36.624,-0.636994,-13.1392,3.25156
1.56,39.0446,3.41727,39.0561,36.6074,-0.82965,-9.63279,3.41413
1.58,39.7752,3.46192,39.788,36.596,-0.570733,12.9458,3.58202
1.6,40.5054,3.50873,40.5197,36.5849,-0.556507,0.711318,3.75533
1.62,41.2352,3.55776,41.2512,36.574,-0.542331,0.708757,3.93418
1.64,41.9645,3.60909,41.9823,36.5531,-1.04822,-25.2945,4.11888
1.66,42.6933,3.66279,42.7131,36.5415,-0.578857,23.4683,4.30995
1.68,43.4218,3.71893,43.4437,36.5316,-0.49444,4.22085,4.50697
1.7,44.1497,3.77759,44.174,36.5122,-0.971937,-23.8748,4.71008
1.72,44.877,3.83885,44.9038,36.4932,-0.94887,1.15334,4.91941
1.74,45.6039,3.90277,45.6335,36.4846,-0.429269,25.9801,5.13512
1.76,46.3301,3.96946,46.3628,36.4654,-0.957189,-26.396,5.35786
1.78,47.0557,4.03896,47.0918,36.4471,-0.917954,1.96175,5.58767
1.8,47.7808,4.11139,47.8205,36.4352,-0.592842,16.2556,5.82436
1.82,48.5052,4.18682,48.5488,36.4141,-1.05575,-23.1454,6.06807
1.84,49.2289,4.26535,49.2767,36.3988,-0.765389,14.5181,6.31897
1.86,49.9519,4.34705,50.0043,36.3782,-1.02789,-13.125,6.57763
1.88,50.6741,4.43202,50.7315,36.3579,-1.01641,0.573976,6.84455
1.9,51.3955,4.52035,51.4583,36.34,-0.894181,6.11145,7.11924
1.92,52.1161,4.61214,52.1847,36.3233,-0.839311,2.74349,7.4019
1.94,52.8359,4.70749,52.9108,36.3025,-1.03539,-9.80383,7.69271
1.96,53.5547,4.80649,53.6364,36.2813,-1.06433,-1.44736,7.99261
1.98,54.2725,4.90923,54.3615,36.2566,-1.23336,-8.45113,8.30168
2,54.9893,5.01585,55.0862,36.2346,-1.09731,6.80214,8.61959
2.02,55.7052,5.12643,55.8106,36.2191,-0.775532,16.0891,8.94653
2.04,56.4199,5.24109,56.5344,36.1897,-1.47202,-34.8242,9.28298
2.06,57.1335,5.35991,57.2578,36.1692,-1.02536,22.3327,9.63026
2.08,57.8458,5.48304,57.9807,36.1438,-1.27101,-12.2824,9.98735
2.1,58.5567,5.61057,58.703,36.1152,-1.42828,-7.86361,10.3545
2.12,59.2664,5.74265,59.4248,36.0936,-1.07907,17.4603,10.732
2.14,59.9746,5.87935,60.1461,36.0651,-1.42366,-17.229,11.1218
2.16,60.6814,6.02084,60.8669,36.0383,-1.34471,3.94708,11.5225
2.18,61.3866,6.16722,61.5872,36.014,-1.21451,6.51002,11.9343
2.2,62.0901,6.31862,62.3068,35.9811,-1.64512,-21.5303,12.3581
2.22,62.792,6.47516,63.0259,35.9538,-1.36445,14.0334,12.7951
2.24,63.4919,6.637,63.7442,35.9183,-1.77513,-20.5338,13.2442
2.26,64.19,6.80425,64.4622,35.8959,-1.11957,32.7777,13.7056
2.28,64.8861,6.97703,65.1793,35.8581,-1.88788,-38.4152,14.1814
2.3,65.5799,7.15552,65.8958,35.822,-1.80378,4.20478,14.6708
2.32,66.2717,7.33984,66.6117,35.7962,-1.29181,25.5984,15.1734
2.34,66.9611,7.53011,67.3268,35.7569,-1.96346,-33.5825,15.6908
2.36,67.648,7.7265,68.0413,35.7215,-1.76977,9.6845,16.2237
2.38,68.3324,7.92915,68.7551,35.6899,-1.57966,9.5058,16.7707
2.4,69.014,8.13821,69.468,35.6462,-2.18879,-30.4567,17.3333
2.42,69.6928,8.3538,70.1802,35.6105,-1.783,20.2895,17.9127
2.44,70.3686,8.5761,70.8916,35.5707,-1.9885,-10.2747,18.5073
2.46,71.0413,8.80525,71.6023,35.5342,-1.82835,8.0075,19.1186
2.48,71.7107,9.04137,72.3121,35.4927,-2.07467,-12.3161,19.7476
2.5,72.3767,9.28467,73.0211,35.4485,-2.20838,-6.68545,20.3927
2.52,73.0391,9.53524,73.7293,35.4111,-1.86885,16.9762,21.0562
2.54,73.6976,9.79325,74.4366,35.3644,-2.3377,-23.4425,21.7376
2.56,74.3523,10.0589,75.1431,35.3244,-2.00001,16.8846,22.4357
2.58,75.0027,10.3322,75.8486,35.2745,-2.49598,-24.7985,23.1544
2.6,75.6488,10.6134,76.5533,35.2327,-2.08642,20.4779,23.8904
2.62,76.2904,10.9026,77.257,35.1873,-2.2715,-9.25366,24.6453
2.64,76.9272,11.2,77.9598,35.1412,-2.30525,-1.68761,25.4198
2.66,77.5592,11.5056,78.6618,35.101,-2.011,14.7123,26.2118
2.68,78.1857,11.8197,79.3627,35.0444,-2.82752,-40.8259,27.0252
2.7,78.8072,12.1423,80.0629,35.0078,-1.83085,49.8333,27.8561
2.72,79.4229,12.4735,80.7621,34.9584,-2.46967,-31.9408,28.707
2.74,80.0327,12.8135,81.4603,34.9107,-2.38792,4.08735,29.5765
2.76,80.6365,13.1623,82.1576,34.8669,-2.18996,9.89788,30.4646
2.78,81.2341,13.5202,82.8541,34.8243,-2.12552,3.22221,31.3719
2.8,81.8251,13.8871,83.5497,34.7813,-2.15208,-1.3279,32.2964
2.82,82.4092,14.2631,84.2444,34.7333,-2.40104,-12.4479,33.24
2.84,82.9865,14.6483,84.9384,34.7017,-1.58008,41.0478,34.1994
2.86,83.5563,15.0427,85.6314,34.6493,-2.62031,-52.0117,35.1772
2.88,84.1188,15.4464,86.3238,34.6203,-1.44905,58.5635,36.1693
2.9,84.6734,15.8594,87.0153,34.5747,-2.27811,-41.453,37.18
2.92,85.2202,16.2818,87.7062,34.545,-1.48602,39.6045,38.2029
2.94,85.7588,16.7136,88.3965,34.5161,-1.44712,1.94457,39.2376
2.96,86.289,17.1547,89.0863,34.4868,-1.4636,-0.823558,40.2841
2.98,86.8106,17.6051,89.7753,34.4539,-1.64529,-9.08468,41.3448
3,87.3234,18.0648,90.4641,34.4356,-0.91324,36.6025,42.4139
3.02,87.8272,18.5338,91.1523,34.4144,-1.0619,-7.43276,43.4906
3.04,88.3218,19.0119,91.8403,34.3967,-0.885197,8.83494,44.5744
3.06,88.807,19.4992,92.528,34.3848,-0.594121,14.5538,45.6654
3.08,89.2828,19.9955,93.2155,34.3745,-0.517823,3.81491,46.7597
3.1,89.7488,20.5007,93.9028,34.3658,-0.433155,4.23336,47.8564
3.12,90.2051,21.0147,94.5901,34.3657,-0.00387224,21.4642,48.9545
3.14,90.6514,21.5374,95.2774,34.3637,-0.099473,-4.78004,50.0518
3.16,91.0877,22.0685,95.9648,34.3713,0.380348,23.991,51.1468
3.18,91.5139,22.6081,96.6524,34.3805,0.459715,3.96838,52.2386
3.2,91.93,23.1559,97.3402,34.3919,0.567431,5.38575,53.3257
3.22,92.3358,23.7117,98.0284,34.4079,0.800789,11.6679,54.4042
3.24,92.7313,24.2753,98.717,34.4297,1.09122,14.5214,55.475
3.26,93.1165,24.8466,99.406,34.4498,1.00639,-4.24123,56.5384
3.28,93.4914,25.4254,100.096,34.4782,1.41663,20.512,57.5894
3.3,93.8559,26.0113,100.786,34.5073,1.45677,2.00692,58.6276
3.32,94.2103,26.6043,101.476,34.5389,1.57925,6.12401,59.6528
3.34,94.5544,27.2041,102.168,34.5757,1.84126,13.1007,60.6631
3.36,94.8882,27.8105,102.86,34.6107,1.74831,-4.64792,61.6579
3.38,95.212,28.4233,103.553,34.6521,2.07239,16.2041,62.6365
3.4,95.5258,29.0422,104.247,34.6931,2.04672,-1.28343,63.5972
3.42,95.8294,29.6669,104.942,34.7326,1.97902,-3.38486,64.5412
3.44,96.1234,30.2975,105.637,34.7849,2.61428,31.7629,65.4645
3.46,96.4076,30.9334,106.334,34.8253,2.01885,-29.7717,66.3704
3.48,96.6822,31.5745,107.031,34.8755,2.50762,24.4386,67.2555
3.5,96.9474,32.2207,107.73,34.9224,2.34495,-8.13323,68.121
3.52,97.2031,32.8717,108.429,34.9724,2.50012,7.75848,68.9669
3.54,97.4503,33.5273,109.13,35.0319,2.97445,23.7164,69.7908
3.56,97.6872,34.1871,109.831,35.0552,1.16601,-90.4221,70.5955
3.58,97.916,34.8512,110.533,35.118,3.14372,98.8855,71.3786
3.6,98.1365,35.5193,111.237,35.176,2.89742,-12.3149,72.1408
3.62,98.3478,36.1911,111.941,35.2117,1.78504,-55.6193,72.8837
3.64,98.5518,36.8666,112.647,35.2816,3.49756,85.626,73.6041
3.66,98.7465,37.5454,113.353,35.3129,1.56262,-96.7469,74.3046
3.68,98.9339,38.2275,114.06,35.3662,2.66261,54.9993,74.986
3.7,99.1129,38.9127,114.769,35.4095,2.16506,-24.8774,75.6451
3.72,99.2854,39.6008,115.478,35.4702,3.03806,43.6499,76.2851
3.74,99.4495,40.2917,116.188,35.5055,1.76511,-63.6475,76.9064
3.76,99.6071,40.9852,116.899,35.559,2.67407,45.4481,77.5069
3.78,99.7582,41.6812,117.612,35.6124,2.66939,-0.23406,78.0881
3.8,99.9018,42.3795,118.324,35.646,1.68187,-49.3759,78.6514
3.82,100.039,43.0801,119.038,35.69,2.19836,25.8244,79.1963
3.84,100.169,43.7828,119.753,35.7361,2.30471,5.31778,79.7213
3.86,100.294,44.4876,120.469,35.7878,2.58609,14.0688,80.2291
3.88,100.412,45.1942,121.185,35.8185,1.53581,-52.5139,80.7199
3.9,100.525,45.9025,121.903,35.8702,2.58448,52.4335,81.1929
3.92,100.632,46.6127,122.621,35.9042,1.69909,-44.2693,81.6479
3.94,100.734,47.3243,123.34,35.9463,2.10662,20.3765,82.0867
3.96,100.83,48.0376,124.059,35.9879,2.08084,-1.28929,82.5095
3.98,100.922,48.7522,124.78,36.0232,1.76502,-15.7911,82.9164
4,101.008,49.4683,125.501,36.0584,1.75567,-0.467141,83.3057
4.02,101.09,50.1857,126.223,36.1061,2.38776,31.6042,83.6799
4.04,101.167,50.9043,126.946,36.1345,1.41709,-48.5331,84.0391
4.06,101.24,51.6208,127.666,36.0135,-6.04884,-373.296,84.382
4.08,101.307,52.3247,128.373,35.3529,-33.0312,-1349.12,84.7039
4.1,101.369,53.0154,129.067,34.6736,-33.9644,-46.6591,85.0045
4.12,101.426,53.6924,129.746,33.9706,-35.1506,-59.309,85.2862
4.14,101.48,54.3558,130.412,33.2791,-34.5729,28.8844,85.5498
4.16,101.529,55.0055,131.063,32.578,-35.0531,-24.0116,85.7962
4.18,101.575,55.6415,131.701,31.8797,-34.9166,6.82753,86.0262
4.2,101.617,56.2635,132.324,31.1733,-35.322,-20.2706,86.2407
4.22,101.655,56.8717,132.934,30.4725,-35.0388,14.1585,86.4403
4.24,101.692,57.4659,133.529,29.766,-35.3218,-14.1468,86.626
4.26,101.724,58.0461,134.11,29.0525,-35.6772,-17.7722,86.7984
4.28,101.756,58.6122,134.677,28.3506,-35.0948,29.1219,86.9584
4.3,101.785,59.1641,135.23,27.6319,-35.9338,-41.9519,87.1066
4.32,101.811,59.7019,135.768,26.9204,-35.5763,17.8758,87.2433
4.34,101.835,60.2256,136.292,26.2117,-35.4347,7.08159,87.3685
4.36,101.859,60.7348,136.802,25.491,-36.0348,-30.0078,87.4839
4.38,101.879,61.2299,137.298,24.7769,-35.7044,16.5225,87.5902
4.4,101.899,61.7106,137.779,24.0554,-36.076,-18.5826,87.6882
4.42,101.918,62.177,138.245,23.3368,-35.9312,7.23913,87.7767
4.44,101.935,62.629,138.698,22.6181,-35.9324,-0.061028,87.857
4.46,101.951,63.0666,139.136,21.8922,-36.299,-18.3251,87.9309
4.48,101.966,63.4897,139.559,21.1681,-36.2017,4.86048,87.9976
4.5,101.981,63.8984,139.968,20.4516,-35.8265,18.7615,88.0568
4.52,101.993,64.2925,140.362,19.7149,-36.8368,-50.5124,88.1113
4.54,102.005,64.6722,140.742,18.995,-35.9953,42.0708,88.159
4.56,102.017,65.0375,141.108,18.2718,-36.1552,-7.99277,88.2019
4.58,102.028,65.3881,141.458,17.5367,-36.7589,-30.184,88.2402
4.6,102.038,65.7241,141.795,16.808,-36.435,16.1959,88.2733
4.62,102.048,66.0455,142.116,16.0812,-36.3372,4.88881,88.3031
4.64,102.057,66.3523,142.423,15.3461,-36.7564,-20.9609,88.3283
4.66,102.065,66.6446,142.715,14.6169,-36.458,14.9212,88.3506
4.68,102.073,66.9221,142.993,13.8847,-36.6135,-7.77836,88.3698
4.7,102.081,67.1851,143.256,13.1534,-36.5639,2.48147,88.3855
4.72,102.088,67.4333,143.505,12.4144,-36.9493,-19.2684,88.4003
4.74,102.094,67.6669,143.738,11.6839,-36.5259,21.1704,88.4107
4.76,102.1,67.8857,143.957,10.9468,-36.855,-16.4586,88.42
4.78,102.106,68.0899,144.161,10.2133,-36.6753,8.9889,88.4288
4.8,102.111,68.2794,144.351,9.47605,-36.8612,-9.29768,88.4339
4.82,102.116,68.454,144.526,8.73777,-36.9141,-2.64255,88.4384
4.84,102.12,68.614,144.686,8.00242,-36.7678,7.31295,88.4426
4.86,102.124,68.7592,144.831,7.25911,-37.1652,-19.8698,88.4462
4.88,102.128,68.8897,144.962,6.53018,-36.4465,35.9337,88.4474
4.9,102.131,69.0054,145.077,5.78454,-37.2819,-41.7676,88.4484
4.92,102.134,69.1063,145.178,5.05031,-36.7119,28.5015,88.4492
4.94,102.136,69.1924,145.264,4.30424,-37.3033,-29.572,88.45
4.96,102.138,69.2638,145.336,3.56996,-36.7141,29.4622,88.4506
4.98,102.139,69.3203,145.392,2.82924,-37.0359,-16.0939,88.4511
5,102.141,69.3621,145.434,2.09143,-36.8905,7.2701,88.4515
5.02,102.141,69.3887,145.461,1.32952,-38.0956,-60.2512,88.4517
5.04,102.142,69.3993,145.471,0.532114,-39.8703,-88.7384,88.4518
