"time","x","y","position","velocity","acceleration","jerk","heading"
0,18.9474,292,0,0,90,0,0
0.02,19.0815,292,0.134164,1.8,90,0,0.000148195
0.04,19.2157,292,0.268328,3.6,90,0,0.00029639
0.06,19.3499,292,0.402492,5.4,90,0,0.000444585
0.08,19.484,292,0.536656,7.2,90,0,0.000592781
0.1,19.6182,292,0.67082,9,90,0,0.000740976
0.12,19.7524,292,0.804984,10.8,90,0,0.000889171
0.14,19.8865,292,0.939149,12.6,90,0,0.00103737
0.16,20.1244,292,1.17699,14.4,90,0,0.00164369
0.18,20.4483,292,1.50089,16.2,90,0,0.00263028
0.2,20.7722,292,1.82479,18,90,0,0.00361687
0.22,21.1412,292,2.19378,19.8,90,0,0.00509206
0.24,21.5633,292,2.6159,21.6,90,0,0.00714296
0.26,21.9925,292,3.04509,23.4,90,0,0.00930464
0.28,22.4932,292,3.5458,25.2,90,0,0.0125855
0.3,23.0002,292,4.05279,27,90,0,0.0159912
0.32,23.5685,292.001,4.62111,28.8,90,0,0.020615
0.34,24.1569,292.001,5.20954,30.6,90,0,0.0257124
0.36,24.7855,292.001,5.83818,32.4,90,0,0.0317571
0.38,25.455,292.002,6.50763,34.2,90,0,0.0388955
0.4,26.1528,292.002,7.20545,36,90,0,0.0468341
0.42,26.8873,292.003,7.93989,37.8,90,0,0.0558566
0.44,27.6653,292.004,8.71796,39.6,90,0,0.066275
0.46,28.4759,292.005,9.52856,41.4,90,0,0.0777903
0.48,29.3209,292.006,10.3736,43.2,90,0,0.0905029
0.5,30.2015,292.007,11.2541,45,90,0,0.104491
0.52,31.1182,292.009,12.1708,46.8,88.2917,0,0.11981
0.54,32.0711,292.011,13.1238,48.5748,70.0991,0,0.136489
0.56,33.0566,292.014,14.1093,50,0,0,0.154468
0.58,34.0566,292.017,15.1093,50,0,0,0.173375
0.6,35.0566,292.02,16.1093,50,0,0,0.192857
0.62,36.0566,292.023,17.1093,50,0,0,0.212818
0.64,37.0566,292.027,18.1093,50,0,0,0.23316
0.66,38.0566,292.031,19.1093,50,0,0,0.253786
0.68,39.0566,292.036,20.1093,50,0,0,0.274592
0.7,40.0566,292.041,21.1093,50,0,0,0.295383
0.72,41.0566,292.046,22.1093,50,0,0,0.316111
0.74,42.0565,292.052,23.1093,50,0,0,0.336685
0.76,43.0565,292.058,24.1093,50,0,0,0.356835
0.78,44.0565,292.064,25.1093,50,0,0,0.376613
0.8,45.0565,292.071,26.1093,50,0,0,0.395641
0.82,46.0565,292.078,27.1093,50,0,0,0.413954
0.84,47.0564,292.086,28.1093,50,0,0,0.431267
0.86,48.0564,292.093,29.1093,50,0,0,0.447342
0.88,49.0564,292.101,30.1093,50,0,0,0.462298
0.9,50.0563,292.11,31.1093,50,0,0,0.475255
0.92,51.0563,292.118,32.1093,50,0,0,0.487166
0.94,52.0563,292.127,33.1093,50,0,0,0.495929
0.96,53.0562,292.135,34.1093,50,0,0,0.503417
0.98,54.0562,292.144,35.1093,50,0,0,0.507564
1,55.0561,292.153,36.1093,50,0,0,0.509339
1.02,56.0561,292.162,37.1093,50,0,0,0.508249
1.04,57.0561,292.171,38.1093,50,0,0,0.503025
1.06,58.056,292.179,39.1093,50,0,0,0.495421
1.08,59.056,292.188,40.1093,50,0,0,0.482322
1.1,60.056,292.196,41.1093,50,0,0,0.465927
1.12,61.0559,292.204,42.1093,50,0,0,0.445427
1.14,62.0559,292.212,43.1093,50,0,0,0.41886
1.16,63.0559,292.219,44.1093,50,0,0,0.388763
1.18,64.0559,292.225,45.1093,50,0,0,0.35264
1.2,65.0558,292.231,46.1093,50,0,0,0.311016
1.22,66.0558,292.236,47.1093,50,0,0,0.265191
1.24,67.0558,292.241,48.1093,50,0,0,0.212146
1.26,68.0558,292.244,49.1093,50,0,0,0.154115
1.28,69.0558,292.246,50.1093,50,0,0,0.0915805
1.3,70.0558,292.247,51.1093,50,0,0,0.0216844
1.32,71.0558,292.247,52.1093,50,0,0,-0.0526689
1.34,72.0558,292.245,53.1093,50,0,0,-0.131273
1.36,73.0558,292.242,54.1093,50,0,0,-0.216271
1.38,74.0558,292.238,55.1093,50,0,0,-0.304982
1.4,75.0558,292.232,56.1093,50,0,0,-0.397076
1.42,76.0557,292.224,57.1093,50,0,0,-0.493724
1.44,77.0557,292.214,58.1093,50,0,0,-0.592908
1.46,78.0556,292.203,59.1093,50,0,0,-0.694106
1.48,79.0555,292.19,60.1093,50,0,0,-0.797546
1.5,80.0554,292.175,61.1093,50,0,0,-0.901867
1.52,81.0553,292.159,62.1093,50,0,0,-1.00659
1.54,82.0551,292.14,63.1093,50,0,0,-1.11115
1.56,83.0549,292.12,64.1093,50,0,0,-1.21469
1.58,84.0547,292.098,65.1093,50,0,0,-1.31707
1.6,85.0544,292.074,66.1093,50,0,0,-1.417
1.62,86.0541,292.048,67.1093,50,0,0,-1.51422
1.64,87.0537,292.021,68.1093,50,0,0,-1.60901
1.66,88.0533,291.992,69.1093,50,0,0,-1.69914
1.68,89.0528,291.962,70.1093,50,0,0,-1.78564
1.7,90.0523,291.93,71.1093,50,0,0,-1.86883
1.72,91.0517,291.896,72.1093,50,0,0,-1.94503
1.74,92.0511,291.862,73.1093,50,0,0,-2.01771
1.76,93.0505,291.826,74.1093,50,0,0,-2.0853
1.78,94.0498,291.789,75.1093,50,0,0,-2.14632
1.8,95.0491,291.751,76.1093,50,0,0,-2.20359
1.82,96.0483,291.712,77.1093,50,0,0,-2.2533
1.84,97.0476,291.672,78.1093,50,0,0,-2.29835
1.86,98.0467,291.632,79.1093,50,0,0,-2.33807
1.88,99.0459,291.591,80.1093,50,0,0,-2.37062
1.9,100.045,291.549,81.1093,50,0,0,-2.39973
1.92,101.044,291.507,82.1093,50,0,0,-2.42004
1.94,102.043,291.465,83.1093,50,0,0,-2.43692
1.96,103.042,291.422,84.1093,50,0,0,-2.44686
1.98,104.041,291.379,85.1093,50,0,0,-2.4517
2,105.04,291.336,86.1093,50,0,0,-2.45126
2.02,106.04,291.294,87.1093,50,0,0,-2.44431
2.04,107.039,291.251,88.1093,50,0,0,-2.43351
2.06,108.038,291.209,89.1093,50,0,0,-2.41503
2.08,109.037,291.167,90.1093,50,0,0,-2.39388
2.1,110.036,291.125,91.1093,50,0,0,-2.36409
2.12,111.035,291.084,92.1093,50,0,0,-2.33245
2.14,112.034,291.044,93.1093,50,0,0,-2.29166
2.16,113.034,291.004,94.1093,50,0,0,-2.24918
2.18,114.033,290.965,95.1093,50,0,0,-2.19789
2.2,115.032,290.927,96.1093,50,0,0,-2.14514
2.22,116.031,290.89,97.1093,50,0,0,-2.08487
2.24,117.031,290.855,98.1093,50,0,0,-2.01919
2.26,118.03,290.82,99.1093,50,0,0,-1.94803
2.28,119.03,290.787,100.109,50,0,0,-1.87134
2.3,120.029,290.755,101.109,50,0,0,-1.78901
2.32,121.029,290.724,102.109,50,0,0,-1.7008
2.34,122.028,290.695,103.109,50,0,0,-1.60663
2.36,123.028,290.668,104.109,50,0,0,-1.50642
2.38,124.028,290.643,105.109,50,0,0,-1.39998
2.4,125.027,290.619,106.109,50,0,0,-1.28714
2.42,126.027,290.598,107.109,50,0,0,-1.16765
2.44,127.027,290.579,108.109,50,0,0,-1.04128
2.46,128.027,290.562,109.109,50,0,0,-0.90775
2.48,129.027,290.547,110.109,50,0,0,-0.766731
2.5,130.027,290.535,111.109,50,0,0,-0.617873
2.52,131.026,290.525,112.109,50,0,0,-0.460778
2.54,132.026,290.519,113.109,50,0,0,-0.294999
2.56,133.026,290.515,114.109,50,0,0,-0.122084
2.58,134.026,290.514,115.109,50,0,0,0.0366685
2.6,135.026,290.516,116.109,50,0,0,0.144976
2.62,136.026,290.519,117.109,50,0,0,0.244961
2.64,137.026,290.525,118.109,50,0,0,0.338583
2.66,138.026,290.531,119.109,50,0,0,0.425498
2.68,139.026,290.539,120.109,50,0,0,0.503315
2.7,140.026,290.549,121.109,50,0,0,0.573654
2.72,141.026,290.559,122.109,50,0,0,0.637404
2.74,142.026,290.571,123.109,50,0,0,0.693927
2.76,143.026,290.584,124.109,50,0,0,0.740495
2.78,144.026,290.597,125.109,50,0,0,0.780394
2.8,145.026,290.611,126.109,50,0,0,0.813429
2.82,146.026,290.625,127.109,50,0,0,0.838
2.84,147.026,290.64,128.109,50,0,0,0.853706
2.86,148.026,290.655,129.109,50,0,0,0.862657
2.88,149.026,290.67,130.109,50,0,0,0.864495
2.9,150.025,290.685,131.109,50,0,0,0.856608
2.92,151.025,290.7,132.109,50,0,0,0.841048
2.94,152.025,290.715,133.109,50,0,0,0.818595
2.96,153.025,290.729,134.109,50,0,0,0.788418
2.98,154.025,290.742,135.109,50,0,0,0.748098
3,155.025,290.755,136.109,50,0,0,0.70086
3.02,156.025,290.767,137.109,50,0,0,0.646461
3.04,157.025,290.778,138.109,50,0,0,0.58302
3.06,158.025,290.787,139.109,50,0,0,0.510609
3.08,159.025,290.795,140.109,50,0,0,0.431139
3.1,160.025,290.802,141.109,50,0,0,0.344184
3.12,161.025,290.807,142.109,50,0,0,0.246793
3.14,162.025,290.811,143.109,50,0,0,0.141541
3.16,163.025,290.812,144.109,50,0,0,0.0289382
3.18,164.025,290.812,145.109,50,0,0,-0.0920431
3.2,165.025,290.809,146.109,50,0,0,-0.223719
3.22,166.025,290.804,147.109,50,0,0,-0.36291
3.24,167.025,290.796,148.109,50,0,0,-0.509914
3.26,168.025,290.786,149.109,50,0,0,-0.666732
3.28,169.024,290.773,150.109,50,0,0,-0.8335
3.3,170.024,290.757,151.109,50,0,0,-1.00819
3.32,171.024,290.738,152.109,50,0,0,-1.19126
3.34,172.024,290.716,153.109,50,0,0,-1.38564
3.36,173.024,290.69,154.109,50,0,0,-1.58948
3.38,174.023,290.66,155.109,50,0,0,-1.8018
3.4,175.023,290.627,156.109,50,0,0,-2.0232
3.42,176.022,290.59,157.109,50,0,0,-2.25742
3.44,177.021,290.548,158.109,50,0,0,-2.50098
3.46,178.02,290.502,159.109,50,0,0,-2.75375
3.48,179.019,290.452,160.109,50,0,0,-3.01664
3.5,180.017,290.397,161.109,50,0,0,-3.2934
3.52,181.015,290.337,162.109,50,0,0,-3.58009
3.54,182.013,290.272,163.109,50,0,0,-3.87694
3.56,183.011,290.202,164.109,50,0,0,-4.18497
3.58,184.008,290.126,165.109,50,0,0,-4.50806
3.6,185.005,290.045,166.109,50,0,0,-4.84221
3.62,186.001,289.957,167.109,50,0,0,-5.18769
3.64,186.996,289.864,168.109,50,0,0,-5.54534
3.66,187.991,289.764,169.109,50,0,0,-5.91951
3.68,188.986,289.658,170.109,50,0,0,-6.30652
3.7,189.979,289.544,171.109,50,0,0,-6.70635
3.72,190.972,289.424,172.109,50,0,0,-7.11973
3.74,191.964,289.297,173.109,50,0,0,-7.54993
3.76,192.955,289.161,174.109,50,0,0,-7.99639
3.78,193.944,289.018,175.109,50,0,0,-8.4575
3.8,194.933,288.867,176.109,50,0,0,-8.9337
3.82,195.92,288.708,177.109,50,0,0,-9.42612
3.84,196.906,288.54,178.109,50,0,0,-9.93977
3.86,197.89,288.363,179.109,50,0,0,-10.4704
3.88,198.873,288.176,180.109,50,0,0,-11.0184
3.9,199.853,287.98,181.109,50,0,0,-11.5844
3.92,200.832,287.775,182.109,50,0,0,-12.1695
3.94,201.808,287.559,183.109,50,0,0,-12.7789
3.96,202.782,287.332,184.109,50,0,0,-13.4086
3.98,203.754,287.095,185.109,50,0,0,-14.0589
4,204.722,286.846,186.109,50,0,0,-14.7306
4.02,205.688,286.586,187.109,50,0,0,-15.4244
4.04,206.65,286.315,188.109,50,0,0,-16.1429
4.06,207.609,286.03,189.109,50,0,0,-16.8886
4.08,208.564,285.733,190.109,50,0,0,-17.6584
4.1,209.515,285.424,191.109,50,0,0,-18.4533
4.12,210.461,285.101,192.109,50,0,0,-19.2738
4.14,211.402,284.764,193.109,50,-1.5922,0,-20.1207
4.16,212.339,284.413,194.109,49.9682,-17.1057,0,-20.9945
4.18,213.266,284.049,195.105,49.6273,-37.6654,0,-21.8945
4.2,214.177,283.674,196.09,48.8735,-36.0413,0,-22.8145
4.22,215.068,283.291,197.06,48.1518,-34.3146,0,-23.7476
4.24,215.94,282.898,198.017,47.464,-32.6291,0,-24.6939
4.26,216.793,282.497,198.959,46.8108,-30.9825,0,-25.6535
4.28,217.628,282.088,199.889,46.1911,-29.3701,0,-26.6261
4.3,218.445,281.67,200.807,45.6034,-27.7879,0,-27.6112
4.32,219.244,281.243,201.713,45.047,-26.2325,0,-28.6085
4.34,220.026,280.808,202.608,44.5213,-24.6811,0,-29.6175
4.36,220.792,280.363,203.494,44.026,-23.1286,0,-30.638
4.38,221.542,279.91,204.37,43.561,-21.6563,0,-31.6701
4.4,222.276,279.448,205.237,43.1249,-20.2668,0,-32.7137
4.42,222.994,278.978,206.096,42.7154,-18.8089,0,-33.7676
4.44,223.697,278.498,206.946,42.3359,-17.3558,0,-34.8314
4.46,224.384,278.01,207.789,41.9885,-15.9154,0,-35.9052
4.48,225.057,277.514,208.625,41.6688,-14.4842,0,-36.987
4.5,225.716,277.008,209.456,41.3766,-13.0607,0,-38.0764
4.52,226.36,276.493,210.281,41.1115,-11.6437,0,-39.1726
4.54,226.991,275.969,211.101,40.8732,-10.2319,0,-40.2753
4.56,227.608,275.436,211.916,40.6651,-8.82418,0,-41.3844
4.58,228.212,274.894,212.728,40.488,-7.41885,0,-42.4992
4.6,228.802,274.342,213.536,40.3374,-6.0141,0,-43.6182
4.62,229.38,273.781,214.341,40.2132,-4.60875,0,-44.7408
4.64,229.945,273.209,215.145,40.1154,-3.20167,0,-45.8664
4.66,230.498,272.629,215.947,40.0463,-1.79126,0,-46.9944
4.68,231.038,272.038,216.747,40.01,-0.374817,0,-48.1242
4.7,231.566,271.437,217.547,40.0003,1.04823,0,-49.2546
4.72,232.082,270.825,218.347,40.0172,2.47922,0,-50.3849
4.74,232.587,270.204,219.148,40.061,3.91928,0,-51.5146
4.76,233.079,269.571,219.95,40.134,5.36996,0,-52.6428
4.78,233.561,268.927,220.754,40.2409,6.81432,0,-53.7681
4.8,234.031,268.272,221.56,40.3751,8.29311,0,-54.8903
4.82,234.49,267.606,222.369,40.537,9.7947,0,-56.0083
4.84,234.938,266.928,223.182,40.7275,11.3115,0,-57.1214
4.86,235.374,266.238,223.998,40.9469,12.8505,0,-58.2291
4.88,235.8,265.535,224.82,41.2038,14.4223,0,-59.3289
4.9,236.215,264.819,225.647,41.4908,16.024,0,-60.4217
4.92,236.619,264.091,226.481,41.8085,17.6594,0,-61.5069
4.94,237.013,263.349,227.32,42.1576,19.3328,0,-62.5839
4.96,237.396,262.594,228.167,42.5392,21.0491,0,-63.652
4.98,237.767,261.825,229.021,42.9543,22.8138,0,-64.7105
5,238.129,261.041,229.885,43.4097,24.6436,0,-65.7572
5.02,238.481,260.241,230.759,43.9018,26.5396,0,-66.7929
5.04,238.822,259.425,231.642,44.4311,28.4954,0,-67.8173
5.06,239.152,258.594,232.537,44.999,30.2846,0,-68.8299
5.08,239.471,257.747,233.443,45.6028,32.2591,0,-69.8297
5.1,239.781,256.882,234.361,46.2453,34.6237,0,-70.8145
5.12,240.079,255.999,235.293,46.9351,37.0813,0,-71.7834
5.14,240.367,255.098,236.238,47.6744,39.5793,0,-72.738
5.16,240.645,254.178,237.2,48.4642,41.7738,0,-73.6782
5.18,240.912,253.238,238.177,49.2994,34.7307,0,-74.6033
5.2,241.167,252.279,239.17,50,0,0,-75.5115
5.22,241.41,251.308,240.17,50,0,0,-76.3943
5.24,241.638,250.335,241.17,50,0,0,-77.2442
5.26,241.852,249.358,242.17,50,0,0,-78.0573
5.28,242.052,248.378,243.17,50,0,0,-78.8399
5.3,242.239,247.396,244.17,50,0,0,-79.5927
5.32,242.413,246.411,245.17,50,0,0,-80.3164
5.34,242.575,245.424,246.17,50,0,0,-81.0109
5.36,242.725,244.436,247.17,50,0,0,-81.6735
5.38,242.865,243.445,248.17,50,0,0,-82.3049
5.4,242.993,242.454,249.17,50,0,0,-82.9097
5.42,243.111,241.461,250.17,50,0,0,-83.4886
5.44,243.22,240.467,251.17,50,0,0,-84.0412
5.46,243.319,239.472,252.17,50,0,0,-84.5638
5.48,243.409,238.476,253.17,50,0,0,-85.0592
5.5,243.491,237.479,254.17,50,0,0,-85.5311
5.52,243.565,236.482,255.17,50,0,0,-85.9797
5.54,243.632,235.484,256.17,50,0,0,-86.4025
5.56,243.691,234.486,257.17,50,0,0,-86.7969
5.58,243.743,233.487,258.17,50,-13.6013,0,-87.1697
5.6,243.789,232.491,259.167,49.728,-81.6725,0,-87.5201
5.62,243.829,231.513,260.146,48.0973,-90,0,-87.8414
5.64,243.862,230.569,261.09,46.2973,-90,0,-88.1259
5.66,243.889,229.66,262,44.4973,-90,0,-88.3831
5.68,243.912,228.791,262.869,42.6973,-90,0,-88.6113
5.7,243.931,227.958,263.702,40.8973,-90,0,-88.8142
5.72,243.946,227.16,264.5,39.0973,-90,0,-88.9916
5.74,243.958,226.396,265.265,37.2973,-90,0,-89.1484
5.76,243.968,225.661,266,35.4973,-90,0,-89.2894
5.78,243.976,224.978,266.683,33.6973,-90,0,-89.4071
5.8,243.982,224.323,267.337,31.8973,-90,0,-89.5112
5.82,243.987,223.695,267.966,30.0973,-90,0,-89.6037
5.84,243.99,223.123,268.538,28.2973,-90,0,-89.6738
5.86,243.993,222.568,269.093,26.4973,-90,0,-89.7391
5.88,243.995,222.067,269.594,24.6973,-90,0,-89.7896
5.9,243.997,221.581,270.08,22.8973,-90,0,-89.837
5.92,243.998,221.159,270.502,21.0973,-90,0,-89.871
5.94,243.999,220.737,270.924,19.2973,-90,0,-89.905
5.96,243.999,220.395,271.266,17.4973,-90,0,-89.9246
5.98,243.999,220.071,271.59,15.6973,-90,0,-89.9411
6,244,219.747,271.913,13.8973,-90,0,-89.9575
6.02,244,219.563,272.098,12.0973,-90,0,-89.9645
6.04,244,219.428,272.232,10.2973,-90,0,-89.9681
6.06,244,219.294,272.367,8.49728,-90,0,-89.9717
6.08,244,219.16,272.501,6.69728,-90,0,-89.9753
6.1,244,219.026,272.635,4.89728,-90,0,-89.9789
6.12,244,218.892,272.769,3.09728,-90,0,-89.9825
6.14,244,218.758,272.903,1.29728,-90,0,-89.9861
