"time","x","y","position","velocity","acceleration","jerk","heading"
0,169.276,117.645,0,0,0,0,86.8202
0.02,169.282,117.745,0.100133,5.00664,250.332,12516.6,86.8204
0.04,169.287,117.845,0.200234,5.00507,-0.0783862,-12520.5,86.8205
0.06,169.293,117.945,0.300367,5.00664,0.0783862,7.83862,86.8207
0.08,169.298,118.044,0.399469,4.95513,-2.57524,-132.681,86.8208
0.1,169.304,118.144,0.499602,5.00664,2.57524,257.524,86.821
0.12,169.309,118.244,0.599703,5.00507,-0.0783862,-132.681,86.8211
0.14,169.315,118.344,0.699836,5.00664,0.0783862,7.83862,86.8213
0.16,169.32,118.444,0.799938,5.00507,-0.0783862,-7.83862,86.8214
0.18,169.326,118.544,0.90007,5.00664,0.0783862,7.83862,86.8216
0.2,169.331,118.642,0.999173,4.95513,-2.57524,-132.681,86.8217
0.22,169.345,118.884,1.24134,12.1085,357.666,18012.1,86.8227
0.24,169.358,119.125,1.48246,12.0557,-2.63563,-18015.1,86.8237
0.26,169.372,119.366,1.72363,12.0585,0.139823,138.773,86.8247
0.28,169.385,119.607,1.96474,12.0557,-0.139823,-13.9823,86.8257
0.3,169.402,119.909,2.26775,15.1503,154.726,7743.31,86.8277
0.32,169.419,120.224,2.58271,15.7482,29.8958,-6241.53,86.8298
0.34,169.437,120.537,2.89673,15.701,-2.35724,-1612.65,86.8319
0.36,169.456,120.89,3.25053,17.6901,99.4549,5090.61,86.8349
0.38,169.477,121.262,3.62233,18.5896,44.9713,-2724.18,86.8383
0.4,169.497,121.634,3.99506,18.6367,2.35885,-2130.62,86.8417
0.42,169.52,122.056,4.41759,21.1263,124.478,6105.94,86.8466
0.44,169.543,122.477,4.84003,21.1223,-0.197583,-6233.76,86.8516
0.46,169.568,122.927,5.29031,22.5139,69.5798,3488.87,86.8576
0.48,169.593,123.394,5.75745,23.3568,42.1427,-1371.86,86.8641
0.5,169.62,123.881,6.24542,24.3989,52.1049,498.109,86.8716
0.52,169.648,124.388,6.75322,25.3895,49.5317,-128.661,86.88
0.54,169.677,124.915,7.28079,26.379,49.4728,-2.94278,86.8894
0.56,169.706,125.459,7.82614,27.2671,44.4046,-253.41,86.8997
0.58,169.737,126.027,8.3952,28.453,59.2981,744.677,86.9115
0.6,169.768,126.606,8.97518,28.999,27.3009,-1599.86,86.9238
0.62,169.801,127.219,9.58862,30.6722,83.6558,2817.74,86.9384
0.64,169.834,127.842,10.2128,31.2108,26.9312,-2836.23,86.9539
0.66,169.869,128.485,10.8568,32.1982,49.3707,1121.98,86.9708
0.68,169.904,129.153,11.5253,33.4229,61.234,593.165,86.9897
0.7,169.939,129.836,12.2094,34.2091,39.3102,-1096.19,87.0099
0.72,169.976,130.537,12.9113,35.0916,44.1267,240.826,87.0317
0.74,170.014,131.263,13.6385,36.363,63.5694,972.134,87.056
0.76,170.052,132.006,14.3824,37.1919,41.4428,-1106.33,87.082
0.78,170.09,132.768,15.1448,38.122,46.5054,253.131,87.1098
0.8,170.129,133.547,15.9247,38.9949,43.6475,-142.893,87.1398
0.82,170.169,134.35,16.729,40.2142,60.9636,865.807,87.1727
0.84,170.209,135.172,17.5517,41.1335,45.9641,-749.975,87.2079
0.86,170.251,136.012,18.3928,42.0578,46.2147,12.5291,87.2456
0.88,170.291,136.871,19.2532,43.0212,48.1717,97.8504,87.2861
0.9,170.333,137.749,20.132,43.9395,45.9157,-112.801,87.3294
0.92,170.374,138.647,21.0311,44.9519,50.6167,235.048,87.3758
0.94,170.416,139.563,21.9483,45.8632,45.5655,-252.561,87.4254
0.96,170.457,140.5,22.8857,46.8709,50.3858,241.019,87.4785
0.98,170.498,141.455,23.8413,47.7764,45.275,-255.543,87.5353
1,170.541,142.429,24.8169,48.7828,50.3207,252.284,87.5959
1.02,170.581,143.413,25.8017,49.2369,22.7049,-1380.79,87.66
1.04,170.621,144.397,26.7865,49.2424,0.276156,-1121.44,87.7277
1.06,170.659,145.38,27.7701,49.1799,-3.12692,-170.154,87.7963
1.08,170.696,146.362,28.7526,49.1249,-2.74699,18.9962,87.8694
1.1,170.733,147.344,29.7358,49.1577,1.63875,219.287,87.9438
1.12,170.767,148.325,30.7169,49.0558,-5.09345,-336.61,88.0223
1.14,170.8,149.305,31.6975,49.0329,-1.14657,197.344,88.1026
1.16,170.832,150.285,32.6783,49.0383,0.271978,70.9275,88.1864
1.18,170.862,151.264,33.6575,48.9585,-3.99123,-213.16,88.2726
1.2,170.891,152.243,34.637,48.9749,0.817343,240.429,88.3614
1.22,170.918,153.221,35.6157,48.9369,-1.89727,-135.731,88.4533
1.24,170.943,154.198,36.593,48.863,-3.69439,-89.8559,88.547
1.26,170.968,155.175,37.5704,48.8693,0.314857,200.463,88.6443
1.28,170.99,156.152,38.5475,48.8563,-0.650115,-48.2486,88.7425
1.3,171.011,157.127,39.5227,48.7594,-4.84781,-209.885,88.8445
1.32,171.029,158.103,40.4986,48.7968,1.86933,335.857,88.9474
1.34,171.047,159.078,41.474,48.7687,-1.40105,-163.519,89.0526
1.36,171.061,160.053,42.449,48.7486,-1.0073,19.6872,89.1593
1.38,171.075,161.028,43.4237,48.7349,-0.684209,16.1547,89.2671
1.4,171.087,162.002,44.398,48.7171,-0.889664,-10.2727,89.3763
1.42,171.097,162.976,45.3723,48.7125,-0.231712,32.8976,89.4858
1.44,171.104,163.95,46.3463,48.7045,-0.398427,-8.33577,89.5959
1.46,171.11,164.924,47.3205,48.7073,0.141716,27.0071,89.7057
1.48,171.114,165.899,48.2947,48.7092,0.0928108,-2.44525,89.8153
1.5,171.116,166.873,49.2692,48.7254,0.809669,35.8429,89.9235
1.52,171.117,167.848,50.2439,48.7383,0.644212,-8.27285,90.0306
1.54,171.115,168.823,51.2191,48.7596,1.06403,20.9911,90.1359
1.56,171.112,169.799,52.195,48.795,1.77339,35.4676,90.2382
1.58,171.107,170.775,53.1714,48.8178,1.13919,-31.7099,90.3386
1.6,171.1,171.753,54.1488,48.8691,2.56291,71.186,90.4347
1.62,171.093,172.731,55.1271,48.9154,2.31604,-12.3434,90.5269
1.64,171.083,173.71,56.1061,48.9493,1.69433,-31.0856,90.6163
1.66,171.071,174.689,57.0857,48.9817,1.61962,-3.73556,90.6988
1.68,171.058,175.671,58.0673,49.0818,5.00506,169.272,90.7771
1.7,171.044,176.653,59.05,49.1308,2.44885,-127.811,90.8513
1.72,171.03,177.638,60.0346,49.2316,5.04316,129.716,90.917
1.74,171.013,178.623,61.0203,49.2839,2.6129,-121.513,90.9784
1.76,170.995,179.61,62.0073,49.3507,3.34241,36.4758,91.0342
1.78,170.977,180.599,62.9963,49.4497,4.94801,80.2797,91.0816
1.8,170.959,181.588,63.9853,49.4513,0.0796002,-243.42,91.1247
1.82,170.939,182.58,64.977,49.5847,6.67163,329.601,91.1608
1.84,170.918,183.573,65.9704,49.6694,4.23349,-121.907,91.1898
1.86,170.897,184.567,66.9648,49.7189,2.474,-87.9742,91.2146
1.88,170.876,185.563,67.961,49.8119,4.65348,108.974,91.2315
1.9,170.854,186.559,68.9575,49.8243,0.617396,-201.804,91.2432
1.92,170.832,187.557,69.9559,49.9202,4.79668,208.964,91.251
1.94,170.81,188.557,70.9562,50.0145,4.71239,-4.21474,91.2508
1.96,170.789,189.558,71.9571,50.0475,1.6545,-152.894,91.2477
1.98,170.767,190.559,72.9583,50.0587,0.558491,-54.8006,91.2395
2,170.745,191.562,73.9616,50.1653,5.32683,238.417,91.2265
2.02,170.724,192.566,74.9654,50.1901,1.24217,-204.233,91.2113
2.04,170.703,193.571,75.9706,50.2584,3.41648,108.716,91.1903
2.06,170.682,194.576,76.9761,50.2785,1.00138,-120.755,91.1676
2.08,170.662,195.581,77.9815,50.2687,-0.489068,-74.5225,91.1414
2.1,170.643,196.588,78.9885,50.3471,3.92338,220.622,91.1127
2.12,170.622,197.595,79.9958,50.367,0.991216,-146.608,91.0824
2.14,170.604,198.603,81.0038,50.3992,1.61326,31.1022,91.0492
2.16,170.586,199.611,82.0119,50.4075,0.412338,-60.0462,91.0153
2.18,170.568,200.618,83.0196,50.3846,-1.14479,-77.8562,90.9791
2.2,170.552,201.627,84.0284,50.4388,2.70913,192.696,90.9424
2.22,170.536,202.636,85.0375,50.4529,0.706865,-100.113,90.9045
2.24,170.52,203.645,86.0466,50.4588,0.294521,-20.6172,90.8661
2.26,170.504,204.654,87.0559,50.4651,0.314687,1.00828,90.8271
2.28,170.49,205.663,88.0653,50.4667,0.081564,-11.6561,90.7879
2.3,170.477,206.673,89.0746,50.4684,0.084061,0.124849,90.7485
2.32,170.464,207.682,90.084,50.466,-0.117809,-10.0935,90.7093
2.34,170.452,208.691,91.0933,50.4654,-0.0312467,4.3281,90.6701
2.36,170.441,209.7,92.1024,50.4589,-0.323274,-14.6014,90.6314
2.38,170.43,210.709,93.1116,50.4566,-0.117809,10.2732,90.5929
2.4,170.42,211.717,94.1196,50.399,-2.87955,-138.087,90.555
2.42,170.411,212.716,95.1183,49.9356,-23.1708,-1014.56,90.5182
2.44,170.401,213.694,96.0966,48.918,-50.8815,-1385.53,90.4829
2.46,170.394,214.651,97.0536,47.8507,-53.3645,-124.152,90.449
2.48,170.386,215.589,97.9913,46.8822,-48.421,247.175,90.4167
2.5,170.38,216.505,98.9076,45.8138,-53.4201,-249.954,90.3859
2.52,170.374,217.401,99.8035,44.7962,-50.8825,126.881,90.3566
2.54,170.369,218.278,100.68,43.8282,-48.3983,124.209,90.3288
2.56,170.364,219.134,101.536,42.8118,-50.8238,-121.278,90.3024
2.58,170.36,219.971,102.373,41.845,-48.3374,124.323,90.2774
2.6,170.357,220.788,103.191,40.8795,-48.276,3.06915,90.2537
2.62,170.353,221.581,103.984,39.6585,-61.0488,-638.639,90.2318
2.64,170.35,222.354,104.757,38.6442,-50.7176,516.559,90.2111
2.66,170.348,223.109,105.511,37.7299,-45.7148,250.137,90.1916
2.68,170.345,223.846,106.249,36.8671,-43.1393,128.779,90.1732
2.7,170.343,224.557,106.96,35.5481,-65.9507,-1140.57,90.1564
2.72,170.341,225.25,107.652,34.6351,-45.6478,1015.15,90.1407
2.74,170.34,225.926,108.329,33.8244,-40.5355,255.611,90.1259
2.76,170.339,226.577,108.98,32.5567,-63.3835,-1142.4,90.1126
2.78,170.337,227.208,109.611,31.5462,-50.5241,642.969,90.1002
2.8,170.336,227.827,110.23,30.9379,-30.4183,1005.29,90.0885
2.82,170.336,228.413,110.815,29.2678,-83.5034,-2654.26,90.0785
2.84,170.335,228.988,111.39,28.7643,-25.1745,2916.44,90.0688
2.86,170.334,229.537,111.939,27.4502,-65.7068,-2026.61,90.0603
2.88,170.334,230.069,112.471,26.5931,-42.8557,1142.55,90.0524
2.9,170.333,230.58,112.983,25.5837,-50.4688,-380.654,90.0453
2.92,170.333,231.071,113.473,24.5242,-52.9737,-125.245,90.039
2.94,170.333,231.541,113.944,23.516,-50.4123,128.068,90.0334
2.96,170.332,231.994,114.397,22.6613,-42.7329,383.974,90.0282
2.98,170.332,232.419,114.822,21.2507,-70.5329,-1390,90.0239
3,170.332,232.843,115.246,21.1995,-2.5589,3398.7,90.0197
3.02,170.332,233.217,115.62,18.6865,-125.648,-6154.45,90.0166
3.04,170.332,233.592,115.994,18.7353,2.4411,6404.45,90.0136
3.06,170.332,233.946,116.349,17.7318,-50.1767,-2630.89,90.0109
3.08,170.332,234.262,116.664,15.7724,-97.9712,-2389.73,90.009
3.1,170.332,234.576,116.979,15.7224,-2.5,4773.56,90.0071
3.12,170.332,234.882,117.284,15.2712,-22.5589,-1002.95,90.0053
3.14,170.332,235.123,117.526,12.0606,-160.53,-6898.56,90.0044
3.16,170.332,235.364,117.767,12.0618,0.0589049,8029.45,90.0034
3.18,170.332,235.606,118.009,12.1106,2.4411,119.11,90.0025
3.2,170.332,235.848,118.25,12.0618,-2.4411,-244.11,90.0015
3.22,170.332,235.948,118.35,5.00118,-353.03,-17529.5,90.0014
3.24,170.332,236.048,118.45,5.00236,0.0589049,17654.5,90.0012
3.26,170.332,236.148,118.55,5.00118,-0.0589049,-5.89049,90.0011
3.28,170.332,236.248,118.65,5.00118,6.55032e-11,2.94524,90.001
3.3,170.332,236.348,118.75,5.00236,0.0589049,2.94524,90.0008
3.32,170.332,236.448,118.85,5.00118,-0.0589049,-5.89049,90.0007
3.34,170.332,236.548,118.95,5.00118,7.10543e-11,2.94524,90.0006
3.36,170.332,236.648,119.05,5.00236,0.0589049,2.94524,90.0004
3.38,170.332,236.748,119.151,5.00118,-0.0589049,-5.89049,90.0003
