"time","x","y","position","velocity","acceleration","jerk","heading"
0,14.0318,23.6072,0,0,90,0,0
0.02,14.1659,23.6071,0.134164,1.8,90,0,0.00157115
0.04,14.3001,23.6071,0.268328,3.6,90,0,0.00314229
0.06,14.4343,23.6071,0.402492,5.4,90,0,0.00471344
0.08,14.5684,23.6072,0.536656,7.2,90,0,0.00628459
0.1,14.7026,23.6072,0.67082,9,90,0,0.00785573
0.12,14.8368,23.6072,0.804984,10.8,90,0,0.00942688
0.14,14.9709,23.6072,0.939149,12.6,90,0,0.010998
0.16,15.2088,23.6072,1.17699,14.4,90,0,0.0156528
0.18,15.5327,23.6073,1.50089,16.2,90,0,0.022867
0.2,15.8566,23.6074,1.82479,18,90,0,0.0300812
0.22,16.2256,23.6076,2.19378,19.8,90,0,0.0405798
0.24,16.6477,23.608,2.6159,21.6,90,0,0.0549481
0.26,17.0769,23.6084,3.04509,23.4,90,0,0.0704573
0.28,17.5776,23.6091,3.5458,25.2,90,0,0.0974931
0.3,18.0846,23.6101,4.05279,27,90,0,0.125382
0.32,18.6529,23.6114,4.62111,28.8,90,0,0.161606
0.34,19.2413,23.6132,5.20954,30.6,90,0,0.201493
0.36,19.8699,23.6157,5.83818,32.4,90,0,0.248707
0.38,20.5394,23.6189,6.50763,34.2,90,0,0.308089
0.4,21.2372,23.623,7.20545,36,90,0,0.37498
0.42,21.9716,23.6282,7.93989,37.8,90,0,0.450341
0.44,22.7497,23.6349,8.71796,39.6,90,0,0.537878
0.46,23.5602,23.6432,9.52856,41.4,90,0,0.639062
0.48,24.4052,23.6534,10.3736,43.2,90,0,0.75339
0.5,25.2856,23.6658,11.2541,45,90,0,0.87992
0.52,26.2022,23.681,12.1708,46.8,88.2917,0,1.0212
0.54,27.155,23.6993,13.1238,48.5748,70.0991,0,1.1828
0.56,28.1402,23.7211,14.1093,50,0,0,1.36055
0.58,29.1399,23.7464,15.1093,50,0,0,1.5518
0.6,30.1395,23.7752,16.1093,50,0,0,1.75692
0.62,31.139,23.8077,17.1093,50,0,0,1.97597
0.64,32.1383,23.8441,18.1093,50,0,0,2.20582
0.66,33.1375,23.8847,19.1093,50,0,0,2.44697
0.68,34.1365,23.9296,20.1093,50,0,0,2.70186
0.7,35.1353,23.979,21.1093,50,0,0,2.96889
0.72,36.1338,24.0331,22.1093,50,0,0,3.24598
0.74,37.132,24.0922,23.1093,50,0,0,3.53282
0.76,38.13,24.1563,24.1093,50,0,0,3.82913
0.78,39.1276,24.2258,25.1093,50,0,0,4.13549
0.8,40.1248,24.3006,26.1093,50,0,0,4.44822
0.82,41.1215,24.3809,27.1093,50,0,0,4.76588
0.84,42.1178,24.4667,28.1093,50,0,0,5.08675
0.86,43.1136,24.5582,29.1093,50,0,0,5.40881
0.88,44.1089,24.6553,30.1093,50,0,0,5.72957
0.9,45.1036,24.7579,31.1093,50,0,0,6.04576
0.92,46.0978,24.8659,32.1093,50,0,0,6.35353
0.94,47.0913,24.9792,33.1093,50,0,0,6.64988
0.96,48.0843,25.0975,34.1093,50,0,0,6.93126
0.98,49.0767,25.2205,35.1093,50,0,0,7.19405
1,50.0686,25.348,36.1093,50,0,0,7.43458
1.02,51.0599,25.4794,37.1093,50,0,0,7.64937
1.04,52.0508,25.6142,38.1093,50,0,0,7.83519
1.06,53.0412,25.752,39.1093,50,0,0,7.9892
1.08,54.0313,25.8922,40.1093,50,0,0,8.10912
1.1,55.0212,26.0341,41.1093,50,0,0,8.1933
1.12,56.0109,26.1772,42.1093,50,0,0,8.24078
1.14,57.0006,26.3208,43.1093,50,0,0,8.25132
1.16,57.9902,26.4642,44.1093,50,0,0,8.22543
1.18,58.98,26.6068,45.1093,50,0,0,8.16398
1.2,59.97,26.748,46.1093,50,0,0,8.06678
1.22,60.9602,26.8873,47.1093,50,0,0,7.93844
1.24,61.9508,27.0242,48.1093,50,0,0,7.7817
1.26,62.9418,27.1581,49.1093,50,0,0,7.59957
1.28,63.9333,27.2887,50.1093,50,0,0,7.39513
1.3,64.9252,27.4156,51.1093,50,0,0,7.17152
1.32,65.9176,27.5384,52.1093,50,0,0,6.93176
1.34,66.9106,27.657,53.1093,50,0,0,6.67871
1.36,67.904,27.771,54.1093,50,0,0,6.41493
1.38,68.898,27.8804,55.1093,50,0,0,6.14223
1.4,69.8925,27.985,56.1093,50,0,0,5.86389
1.42,70.8876,28.0847,57.1093,50,0,0,5.58237
1.44,71.883,28.1795,58.1093,50,0,0,5.29922
1.46,72.879,28.2694,59.1093,50,0,0,5.0158
1.48,73.8754,28.3544,60.1093,50,0,0,4.73353
1.5,74.8722,28.4345,61.1093,50,0,0,4.45419
1.52,75.8693,28.5097,62.1093,50,0,0,4.17817
1.54,76.8668,28.5802,63.1093,50,0,0,3.90594
1.56,77.8647,28.646,64.1093,50,0,0,3.6383
1.58,78.8628,28.7071,65.1093,50,0,0,3.37755
1.6,79.8612,28.7638,66.1093,50,0,0,3.12199
1.62,80.8598,28.816,67.1093,50,0,0,2.8718
1.64,81.8587,28.864,68.1093,50,0,0,2.62855
1.66,82.8577,28.9077,69.1093,50,0,0,2.39267
1.68,83.8569,28.9474,70.1093,50,0,0,2.16229
1.7,84.8563,28.9832,71.1093,50,0,0,1.93815
1.72,85.8558,29.0151,72.1093,50,0,0,1.72283
1.74,86.8554,29.0433,73.1093,50,0,0,1.5128
1.76,87.8551,29.0679,74.1093,50,0,0,1.30843
1.78,88.8549,29.089,75.1093,50,0,0,1.11344
1.8,89.8547,29.1067,76.1093,50,0,0,0.923436
1.82,90.8546,29.1212,77.1093,50,0,0,0.738869
1.84,91.8545,29.1325,78.1093,50,0,0,0.563589
1.86,92.8545,29.1408,79.1093,50,0,0,0.393093
1.88,93.8545,29.1462,80.1093,50,0,0,0.228158
1.9,94.8545,29.1488,81.1093,50,0,0,0.0770384
1.92,95.8545,29.1489,82.1093,50,0,0,-0.0221951
1.94,96.8545,29.1481,83.1093,50,0,0,-0.0566659
1.96,97.8545,29.147,84.1093,50,0,0,-0.0678875
1.98,98.8545,29.1458,85.1093,50,0,0,-0.0542803
2,99.8545,29.1451,86.1093,50,0,0,-0.0206078
2.02,100.854,29.1451,87.1093,50,0,0,0.0329022
2.04,101.854,29.1462,88.1093,50,0,0,0.106222
2.06,102.854,29.1488,89.1093,50,0,0,0.20089
2.08,103.854,29.1532,90.1093,50,0,0,0.318889
2.1,104.854,29.1599,91.1093,50,0,0,0.455937
2.12,105.854,29.1691,92.1093,50,0,0,0.611991
2.14,106.854,29.1812,93.1093,50,0,0,0.787062
2.16,107.854,29.1966,94.1093,50,0,0,0.981934
2.18,108.854,29.2156,95.1093,50,0,0,1.2006
2.2,109.854,29.2385,96.1093,50,0,0,1.43825
2.22,110.853,29.2657,97.1093,50,0,0,1.69501
2.24,111.853,29.2976,98.1093,50,0,0,1.97101
2.26,112.852,29.3345,99.1093,50,0,0,2.26668
2.28,113.851,29.3768,100.109,50,0,0,2.58444
2.3,114.85,29.4247,101.109,50,0,0,2.92429
2.32,115.849,29.4788,102.109,50,0,0,3.2841
2.34,116.847,29.5393,103.109,50,0,0,3.66414
2.36,117.845,29.6065,104.109,50,0,0,4.06469
2.38,118.842,29.681,105.109,50,0,0,4.48622
2.4,119.838,29.763,106.109,50,0,0,4.93039
2.42,120.834,29.853,107.109,50,0,0,5.3989
2.44,121.83,29.9512,108.109,50,0,0,5.88918
2.46,122.824,30.0581,109.109,50,0,0,6.40163
2.48,123.817,30.1742,110.109,50,0,0,6.93662
2.5,124.809,30.2996,111.109,50,0,0,7.49454
2.52,125.8,30.435,112.109,50,0,0,8.07582
2.54,126.789,30.5806,113.109,50,0,0,8.68112
2.56,127.777,30.737,114.109,50,0,0,9.313
2.58,128.763,30.9044,115.109,50,0,0,9.97011
2.6,129.747,31.0832,116.109,50,0,0,10.652
2.62,130.728,31.274,117.109,50,0,0,11.3591
2.64,131.707,31.4771,118.109,50,0,0,12.0916
2.66,132.684,31.6929,119.109,50,-4.28459,0,12.8499
2.68,133.657,31.9217,120.108,49.9143,-39.0737,0,13.6335
2.7,134.617,32.1618,121.099,49.1327,-37.7327,0,14.4362
2.72,135.56,32.4115,122.074,48.377,-35.5329,0,15.2517
2.74,136.485,32.6708,123.035,47.6648,-33.4664,0,16.0795
2.76,137.393,32.9396,123.982,46.994,-31.5168,0,16.9195
2.78,138.284,33.2178,124.915,46.3636,-29.644,0,17.7717
2.8,139.158,33.5054,125.836,45.7705,-27.9219,0,18.6357
2.82,140.018,33.8025,126.745,45.2115,-26.2641,0,19.5112
2.84,140.863,34.1092,127.644,44.6853,-24.6568,0,20.3973
2.86,141.693,34.4253,128.532,44.1907,-23.1055,0,21.2933
2.88,142.51,34.7509,129.412,43.7264,-21.6089,0,22.1988
2.9,143.313,35.0861,130.282,43.2914,-20.1611,0,23.1134
2.92,144.103,35.4309,131.144,42.8845,-18.7568,0,24.0367
2.94,144.881,35.7852,131.999,42.5047,-17.3917,0,24.9682
2.96,145.645,36.1486,132.845,42.1569,-15.6536,0,25.909
2.98,146.397,36.5216,133.684,41.8427,-15.9558,0,26.8572
3,147.138,36.9042,134.518,41.5247,-12.7585,0,27.8156
3.02,147.867,37.2967,135.346,41.2563,-11.2808,0,28.7782
3.04,148.585,37.6989,136.169,41.0449,-13.3471,0,29.7423
3.06,149.292,38.1109,136.988,40.7524,-7.16434,0,30.7183
3.08,149.988,38.5322,137.801,40.6087,-9.8981,0,31.693
3.1,150.673,38.9636,138.611,40.414,-7.34868,0,32.6768
3.12,151.349,39.4049,139.418,40.2572,-5.88893,0,33.663
3.14,152.014,39.8563,140.222,40.1436,-5.99949,0,34.651
3.16,152.67,40.3179,141.024,40.0107,-3.3794,0,35.6454
3.18,153.315,40.7894,141.823,39.943,-3.19432,0,36.6387
3.2,153.952,41.2712,142.621,39.8789,-1.98768,0,37.6362
3.22,154.579,41.7634,143.418,39.8355,-0.709929,0,38.6344
3.24,155.197,42.2662,144.215,39.8173,0.309691,0,39.6328
3.26,155.806,42.7795,145.011,39.8192,1.17511,0,40.6318
3.28,156.406,43.3035,145.808,39.8423,2.527,0,41.6314
3.3,156.997,43.8384,146.605,39.8912,3.57819,0,42.6282
3.32,157.58,44.3844,147.404,39.9603,4.47776,0,43.6249
3.34,158.154,44.9413,148.204,40.0467,5.56366,0,44.6205
3.36,158.72,45.5094,149.006,40.1492,7.3429,0,45.61
3.38,159.278,46.0894,149.81,40.2961,7.06537,0,46.6021
3.4,159.827,46.6809,150.618,40.4377,9.39334,0,47.5851
3.42,160.369,47.2841,151.429,40.6185,9.94412,0,48.567
3.44,160.902,47.8991,152.243,40.8231,10.1112,0,49.5458
3.46,161.428,48.5261,153.061,41.0058,14.2792,0,50.5145
3.48,161.946,49.1659,153.884,41.2958,11.2606,0,51.486
3.5,162.456,49.8185,154.712,41.5228,14.6366,0,52.4427
3.52,162.959,50.4836,155.546,41.8093,15.8565,0,53.3996
3.54,163.453,51.1616,156.385,42.1274,16.253,0,54.3513
3.56,163.94,51.8527,157.231,42.4486,17.6108,0,55.2928
3.58,164.42,52.557,158.083,42.7972,18.7434,0,56.227
3.6,164.892,53.2754,158.942,43.1699,19.8903,0,57.1529
3.62,165.356,54.0083,159.81,43.5674,21.0538,0,58.07
3.64,165.814,54.7553,160.686,43.9877,22.2343,0,58.9788
3.66,166.263,55.5168,161.57,44.4312,23.4339,0,59.8789
3.68,166.706,56.2929,162.464,44.8984,24.6547,0,60.7701
3.7,167.14,57.0842,163.366,45.3899,25.8899,0,61.652
3.72,167.567,57.8907,164.279,45.9059,27.1412,0,62.5243
3.74,167.987,58.7131,165.202,46.447,28.4349,0,63.3865
3.76,168.399,59.5515,166.137,47.0141,29.7773,0,64.2378
3.78,168.804,60.4064,167.083,47.6082,31.1441,0,65.0787
3.8,169.202,61.2782,168.041,48.2299,32.5526,0,65.9088
3.82,169.592,62.1674,169.012,48.88,33.8469,0,66.7279
3.84,169.974,63.0744,169.996,49.5598,21.8242,0,67.5359
3.86,170.348,63.9971,170.992,49.9963,0.181927,0,68.3305
3.88,170.711,64.9289,171.992,50,0,0,69.1062
3.9,171.061,65.8655,172.992,50,0,0,69.8597
3.92,171.399,66.8065,173.992,50,0,0,70.5915
3.94,171.726,67.7518,174.992,50,0,0,71.302
3.96,172.041,68.7009,175.992,50,0,0,71.9915
3.98,172.344,69.6537,176.992,50,0,0,72.6606
4,172.637,70.61,177.992,50,0,0,73.3096
4.02,172.919,71.5694,178.992,50,0,0,73.939
4.04,173.19,72.5318,179.992,50,0,0,74.5468
4.06,173.452,73.4971,180.992,50,0,0,75.1358
4.08,173.703,74.4649,181.992,50,0,0,75.7065
4.1,173.945,75.4351,182.992,50,0,0,76.2594
4.12,174.178,76.4076,183.992,50,0,0,76.7949
4.14,174.402,77.3822,184.992,50,0,0,77.3133
4.16,174.618,78.3588,185.992,50,0,0,77.8152
4.18,174.824,79.3371,186.992,50,0,0,78.3009
4.2,175.023,80.3172,187.992,50,0,0,78.7685
4.22,175.214,81.2988,188.992,50,0,0,79.22
4.24,175.397,82.2818,189.992,50,0,0,79.6564
4.26,175.573,83.2663,190.992,50,0,0,80.0781
4.28,175.742,84.2519,191.992,50,0,0,80.4854
4.3,175.904,85.2387,192.992,50,0,0,80.8785
4.32,176.059,86.2266,193.992,50,0,0,81.2577
4.34,176.208,87.2155,194.992,50,0,0,81.6204
4.36,176.35,88.2052,195.992,50,0,0,81.9699
4.38,176.487,89.1958,196.992,50,0,0,82.3064
4.4,176.618,90.1872,197.992,50,0,0,82.6301
4.42,176.744,91.1793,198.992,50,0,0,82.9414
4.44,176.864,92.1721,199.992,50,0,0,83.24
4.46,176.979,93.1654,200.992,50,0,0,83.5236
4.48,177.09,94.1593,201.992,50,0,0,83.7953
4.5,177.195,95.1537,202.992,50,0,0,84.0552
4.52,177.297,96.1485,203.992,50,0,0,84.3035
4.54,177.394,97.1438,204.992,50,0,0,84.5404
4.56,177.487,98.1394,205.992,50,0,0,84.7641
4.58,177.576,99.1354,206.992,50,0,0,84.9751
4.6,177.662,100.132,207.992,50,0,0,85.175
4.62,177.745,101.128,208.992,50,0,0,85.3639
4.64,177.824,102.125,209.992,50,-79.3287,0,85.5419
4.66,177.899,103.106,210.975,48.4134,-89.7548,0,85.7054
4.68,177.969,104.053,211.925,46.6184,-90,0,85.8507
4.7,178.034,104.963,212.838,44.8184,-90,0,85.9811
4.72,178.094,105.838,213.714,43.0184,-90,0,86.0979
4.74,178.151,106.677,214.555,41.2184,-90,0,86.2023
4.76,178.203,107.481,215.361,39.4184,-90,0,86.2953
4.78,178.253,108.253,216.134,37.6184,-90,0,86.3779
4.8,178.299,108.986,216.869,35.8184,-90,0,86.4481
4.82,178.341,109.677,217.561,34.0184,-90,0,86.5082
4.84,178.381,110.34,218.225,32.2184,-90,0,86.5621
4.86,178.419,110.967,218.854,30.4184,-90,0,86.6086
4.88,178.453,111.549,219.436,28.6184,-90,0,86.647
4.9,178.486,112.116,220.004,26.8184,-90,0,86.6828
4.92,178.515,112.615,220.505,25.0184,-90,0,86.7087
4.94,178.543,113.114,221.005,23.2184,-90,0,86.7345
4.96,178.567,113.536,221.427,21.4184,-90,0,86.7504
4.98,178.591,113.957,221.849,19.6184,-90,0,86.7663
5,178.611,114.316,222.208,17.8184,-90,0,86.7775
5.02,178.629,114.639,222.532,16.0184,-90,0,86.7862
5.04,178.648,114.963,222.856,14.2184,-90,0,86.7948
5.06,178.66,115.181,223.074,12.4184,-90,0,86.7998
5.08,178.667,115.315,223.209,10.6184,-90,0,86.8019
5.1,178.675,115.449,223.343,8.81841,-90,0,86.804
5.12,178.682,115.583,223.477,7.01841,-90,0,86.8061
5.14,178.69,115.717,223.611,5.21841,-90,0,86.8082
5.16,178.697,115.851,223.745,3.41841,-90,0,86.8103
5.18,178.705,115.985,223.879,1.61841,-90,0,86.8123
