"time","x","y","position","velocity","acceleration","jerk","heading"
0,18.9474,305,0,0,0,0,0
0.02,19.0814,305,0.134036,6.70179,335.089,16754.5,0.000283115
0.04,19.2156,305,0.268172,6.70679,0.249999,-16742,0.000566231
0.06,19.3497,305,0.402307,6.70679,5.67253e-07,-12.4999,0.000849346
0.08,19.4837,305,0.536343,6.70179,-0.249999,-12.5,0.00113246
0.1,19.6179,305,0.670479,6.70679,0.249997,24.9998,0.00141558
0.12,19.752,305,0.804615,6.70679,5.67234e-06,-12.4995,0.00169869
0.14,19.8861,305,0.93865,6.70179,-0.250006,-12.5006,0.00198181
0.16,20.1237,305,1.17629,11.8818,259.002,12962.6,0.00314341
0.18,20.4472,305,1.49976,16.1735,214.586,-2220.77,0.00503418
0.2,20.7706,305,1.82323,16.1735,3.12941e-09,-10729.3,0.00692495
0.22,21.139,305,2.19159,18.4179,112.215,5610.76,0.0097584
0.24,21.5602,305,2.61279,21.0603,132.12,995.233,0.0137026
0.26,21.9884,305,3.04105,21.4128,17.628,-5724.6,0.0178619
0.28,22.4877,305,3.54031,24.9632,177.517,7994.45,0.0241949
0.3,22.9932,305.001,4.04582,25.2754,15.6141,-8095.15,0.0307719
0.32,23.5595,305.001,4.61209,28.3134,151.896,6814.08,0.039732
0.34,24.1456,305.002,5.19824,29.3078,49.7224,-5108.67,0.049626
0.36,24.7716,305.002,5.82417,31.2966,99.4383,2485.8,0.0613879
0.38,25.4379,305.003,6.49051,33.3169,101.018,78.964,0.0753257
0.4,26.1322,305.004,7.18479,34.7138,69.8424,-1558.76,0.0908635
0.42,26.8627,305.005,7.91527,36.5241,90.5147,1033.61,0.108579
0.44,27.636,305.007,8.68861,38.667,107.147,831.613,0.129129
0.46,28.4414,305.009,9.49404,40.2714,80.2218,-1346.26,0.151932
0.48,29.2807,305.011,10.3333,41.9633,84.5936,218.591,0.177214
0.5,30.1549,305.014,11.2076,43.7131,87.4906,144.853,0.205169
0.52,31.0647,305.018,12.1173,45.4862,88.6543,58.185,0.235953
0.54,32.0099,305.022,13.0625,47.2628,88.8315,8.85812,0.269677
0.56,32.9871,305.027,14.0398,48.8604,79.8777,-447.692,0.30628
0.58,33.9783,305.032,15.031,49.5606,35.009,-2243.43,0.34507
0.6,34.9692,305.039,16.0218,49.544,-0.826522,-1791.78,0.38537
0.62,35.9596,305.046,17.0123,49.5236,-1.02427,-9.88742,0.427035
0.64,36.9499,305.054,18.0026,49.5151,-0.424981,29.9644,0.469923
0.66,37.9399,305.061,18.9927,49.5023,-0.639834,-10.7426,0.513939
0.68,38.9296,305.071,19.9824,49.4866,-0.781296,-7.07312,0.558971
0.7,39.9193,305.081,20.9722,49.4885,0.094561,43.7929,0.604277
0.72,40.9087,305.092,21.9617,49.4743,-0.710989,-40.2775,0.650442
0.74,41.8981,305.104,22.9511,49.4737,-0.0296732,34.0658,0.69671
0.76,42.8876,305.116,23.9406,49.4759,0.111581,7.0627,0.743222
0.78,43.877,305.129,24.9301,49.4734,-0.127409,-11.9495,0.789573
0.8,44.8664,305.144,25.9197,49.4788,0.271374,19.9392,0.835569
0.82,45.856,305.158,26.9094,49.4856,0.339763,3.41944,0.880966
0.84,46.8457,305.173,27.8992,49.4904,0.241826,-4.89687,0.925496
0.86,47.8358,305.19,28.8894,49.5118,1.0668,41.2487,0.968727
0.88,48.8262,305.207,29.88,49.5255,0.685214,-19.0792,1.01075
0.9,49.817,305.225,30.8709,49.5482,1.13416,22.4471,1.05041
0.92,50.8081,305.244,31.8622,49.5636,0.772309,-18.0923,1.08879
0.94,51.8001,305.263,32.8544,49.6093,2.28594,75.6818,1.12314
0.96,52.7925,305.282,33.847,49.6296,1.01304,-63.645,1.15579
0.98,53.7859,305.303,34.8406,49.682,2.62081,80.3884,1.18391
1,54.7801,305.323,35.835,49.7188,1.83764,-39.1589,1.2087
1.02,55.7752,305.345,36.8303,49.7668,2.40229,28.2325,1.22944
1.04,56.7715,305.366,37.8269,49.8287,3.09402,34.587,1.24419
1.06,57.7688,305.388,38.8244,49.8746,2.29468,-39.9674,1.25543
1.08,58.7679,305.41,39.8237,49.968,4.66832,118.682,1.25844
1.1,59.768,305.432,40.8241,50.0199,2.59757,-103.538,1.25643
1.12,60.7697,305.454,41.8261,50.0967,3.84052,62.1476,1.24809
1.14,61.7735,305.476,42.8301,50.1992,5.12175,64.0614,1.23028
1.16,62.7786,305.497,43.8354,50.2667,3.37836,-87.1692,1.20686
1.18,63.7859,305.518,44.8429,50.3765,5.49081,105.622,1.17376
1.2,64.7952,305.538,45.8525,50.4768,5.01413,-23.8337,1.13173
1.22,65.8061,305.558,46.8636,50.5545,3.88217,-56.5983,1.08277
1.24,66.8198,305.577,47.8774,50.6915,6.85216,148.5,1.02173
1.26,67.8355,305.594,48.8932,50.7905,4.95194,-95.0107,0.952242
1.28,68.8529,305.61,49.9107,50.8774,4.34289,-30.4527,0.875025
1.3,69.8732,305.626,50.9312,51.0231,7.28534,147.123,0.784896
1.32,70.8954,305.639,51.9534,51.1117,4.42815,-142.859,0.686837
1.34,71.9193,305.65,52.9774,51.1977,4.30371,-6.22206,0.581085
1.36,72.946,305.66,54.0041,51.3369,6.95572,132.6,0.463423
1.38,73.9742,305.667,55.0324,51.4116,3.73792,-160.89,0.33866
1.4,75.004,305.672,56.0622,51.4913,3.98357,12.2827,0.207262
1.42,76.0359,305.674,57.0941,51.5968,5.27498,64.5703,0.0665182
1.44,77.0691,305.674,58.1273,51.6598,3.1525,-106.124,-0.0797921
1.46,78.1034,305.671,59.1616,51.713,2.65602,-24.824,-0.230765
1.48,79.1389,305.666,60.1972,51.7794,3.32361,33.3794,-0.387562
1.5,80.1752,305.657,61.2335,51.8163,1.84121,-74.1202,-0.547519
1.52,81.2119,305.646,62.2702,51.8371,1.04194,-39.963,-0.709628
1.54,82.249,305.631,63.3075,51.8614,1.2163,8.71782,-0.873716
1.56,83.2862,305.614,64.3448,51.8655,0.204733,-50.5784,-1.03796
1.58,84.3232,305.594,65.3819,51.8577,-0.389131,-29.6932,-1.2018
1.6,85.3596,305.57,66.4187,51.8364,-1.06663,-33.875,-1.36383
1.62,86.3954,305.544,67.4548,51.8079,-1.42285,-17.8111,-1.52314
1.64,87.4306,305.515,68.4904,51.7773,-1.53164,-5.4391,-1.67984
1.66,88.4645,305.484,69.5247,51.7179,-2.96912,-71.8743,-1.83105
1.68,89.4971,305.449,70.558,51.6625,-2.772,9.8559,-1.97769
1.7,90.5288,305.413,71.5903,51.616,-2.32448,22.376,-2.12008
1.72,91.5582,305.373,72.6204,51.5077,-5.41625,-154.589,-2.25315
1.74,92.5865,305.332,73.6495,51.4545,-2.65797,137.914,-2.38136
1.76,93.613,305.288,74.677,51.3751,-3.97155,-65.679,-2.50246
1.78,94.6374,305.242,75.7024,51.2668,-5.41628,-72.2361,-2.61426
1.8,95.6604,305.194,76.7265,51.2074,-2.96586,122.521,-2.72067
1.82,96.6809,305.145,77.7482,51.0842,-6.16051,-159.732,-2.81601
1.84,97.6996,305.094,78.7682,51.0017,-4.12859,101.596,-2.90452
1.86,98.7166,305.041,79.7866,50.9162,-4.27152,-7.14642,-2.98505
1.88,99.731,304.989,80.8024,50.7903,-6.29635,-101.242,-3.05492
1.9,100.744,304.934,81.8173,50.7467,-2.17966,205.835,-3.1196
1.92,101.754,304.878,82.8284,50.5565,-9.51272,-366.653,-3.17079
1.94,102.763,304.822,83.8394,50.5508,-0.280682,461.602,-3.21684
1.96,103.769,304.764,84.8471,50.3814,-8.46953,-409.443,-3.25211
1.98,104.774,304.707,85.8529,50.2933,-4.40739,203.107,-3.27961
2,105.777,304.649,86.8579,50.2492,-2.20642,110.049,-3.29882
2.02,106.777,304.591,87.8597,50.0885,-8.0358,-291.469,-3.30801
2.04,107.776,304.533,88.8601,50.0188,-3.4828,227.65,-3.31106
2.06,108.773,304.476,89.8587,49.9308,-4.39792,-45.7559,-3.30221
2.08,109.768,304.419,90.8554,49.8346,-4.81392,-20.8001,-3.28902
2.1,110.76,304.362,91.849,49.6797,-7.74471,-146.539,-3.26243
2.12,111.752,304.305,92.8429,49.6962,0.828275,428.649,-3.2329
2.14,112.74,304.25,93.8324,49.4773,-10.9472,-588.773,-3.18872
2.16,113.729,304.195,94.8224,49.4966,0.967685,595.744,-3.14209
2.18,114.713,304.142,95.808,49.2828,-10.6929,-583.029,-3.08125
2.2,115.698,304.089,96.7942,49.309,1.31085,600.187,-3.01832
2.22,116.68,304.038,97.7776,49.1675,-7.07736,-419.41,-2.94338
2.24,117.659,303.989,98.7579,49.015,-7.62431,-27.3475,-2.85985
2.26,118.637,303.941,99.7371,48.9641,-2.54476,253.977,-2.76765
2.28,119.613,303.894,100.714,48.8619,-5.10719,-128.121,-2.66666
2.3,120.587,303.85,101.689,48.7522,-5.48784,-19.0327,-2.55661
2.32,121.559,303.807,102.662,48.6447,-5.37517,5.63378,-2.43728
2.34,122.529,303.767,103.633,48.5322,-5.6224,-12.3616,-2.3086
2.36,123.496,303.729,104.601,48.4216,-5.52965,4.63758,-2.17035
2.38,124.463,303.694,105.568,48.3524,-3.4633,103.317,-2.02226
2.4,125.426,303.661,106.532,48.1841,-8.41385,-247.527,-1.86405
2.42,126.388,303.631,107.494,48.1104,-3.68398,236.493,-1.69537
2.44,127.346,303.604,108.453,47.9329,-8.87463,-259.533,-1.51584
2.46,128.303,303.581,109.41,47.851,-4.09803,238.83,-1.32503
2.48,129.257,303.56,110.364,47.7141,-6.84115,-137.156,-1.12247
2.5,130.207,303.543,111.315,47.5197,-9.72311,-144.098,-0.907605
2.52,131.155,303.53,112.263,47.421,-4.93561,239.375,-0.679837
2.54,132.1,303.521,113.208,47.2645,-7.82355,-144.397,-0.438488
2.56,133.043,303.515,114.151,47.1322,-6.61221,60.5672,-0.185623
2.58,133.99,303.514,115.098,47.3503,10.9017,875.695,0.0479457
2.6,134.955,303.517,116.063,48.2556,45.2651,1718.17,0.201732
2.62,135.922,303.521,117.03,48.3184,3.14287,-2106.11,0.349993
2.64,136.889,303.529,117.997,48.3696,2.55978,-29.1548,0.493847
2.66,137.857,303.538,118.965,48.4287,2.95488,19.7552,0.632571
2.68,138.828,303.55,119.936,48.5121,4.17083,60.7975,0.764039
2.7,139.799,303.563,120.907,48.5679,2.78941,-69.0708,0.890704
2.72,140.771,303.58,121.88,48.6287,3.03691,12.3748,1.01222
2.74,141.745,303.598,122.854,48.7152,4.32494,64.4013,1.12627
2.76,142.721,303.618,123.83,48.784,3.44079,-44.2071,1.23434
2.78,143.697,303.64,124.806,48.7976,0.679546,-138.062,1.33709
2.8,144.675,303.664,125.784,48.9255,6.39822,285.934,1.43307
2.82,145.655,303.689,126.764,49.0137,4.40756,-99.533,1.5215
2.84,146.635,303.716,127.745,49.0263,0.630191,-188.869,1.60453
2.86,147.618,303.744,128.728,49.1466,6.01406,269.194,1.68161
2.88,148.601,303.774,129.712,49.2012,2.73098,-164.154,1.7496
2.9,149.587,303.804,130.698,49.3159,5.73457,150.18,1.81202
2.92,150.573,303.836,131.685,49.3345,0.932332,-240.112,1.86853
2.94,151.562,303.869,132.674,49.4813,7.339,320.334,1.91665
2.96,152.552,303.902,133.665,49.5112,1.49338,-292.281,1.95788
2.98,153.544,303.937,134.657,49.6297,5.92575,221.619,1.99322
3,154.537,303.972,135.651,49.6647,1.7501,-208.783,2.02107
3.02,155.531,304.007,136.646,49.7586,4.69668,147.329,2.04064
3.04,156.528,304.043,137.643,49.8767,5.90547,60.4394,2.05436
3.06,157.525,304.079,138.641,49.9013,1.22833,-233.857,2.06151
3.08,158.526,304.115,139.643,50.0606,7.9665,336.908,2.05902
3.1,159.527,304.151,140.644,50.0779,0.865306,-355.06,2.0506
3.12,160.529,304.186,141.647,50.148,3.50179,131.824,2.03585
3.14,161.535,304.222,142.653,50.3055,7.87376,218.598,2.01178
3.16,162.541,304.257,143.66,50.3326,1.3551,-325.933,1.98076
3.18,163.548,304.292,144.668,50.4024,3.49295,106.892,1.94343
3.2,164.559,304.325,145.679,50.5468,7.2193,186.318,1.89763
3.22,165.57,304.358,146.691,50.5911,2.21506,-250.212,1.84352
3.24,166.583,304.391,147.705,50.7113,6.00801,189.647,1.78308
3.26,167.598,304.421,148.72,50.7442,1.64581,-218.11,1.71506
3.28,168.616,304.452,149.738,50.9051,8.0464,320.029,1.63726
3.3,169.635,304.48,150.757,50.9748,3.48536,-228.052,1.55306
3.32,170.654,304.507,151.777,51.001,1.30815,-108.86,1.46191
3.34,171.677,304.532,152.801,51.1713,8.51615,360.4,1.36004
3.36,172.702,304.555,153.826,51.2473,3.80008,-235.804,1.25116
3.38,173.727,304.576,154.851,51.2762,1.44582,-117.713,1.13523
3.4,174.756,304.596,155.88,51.4362,7.99804,327.611,1.00943
3.42,175.787,304.612,156.911,51.5327,4.82467,-158.669,0.874893
3.44,176.819,304.628,157.943,51.6136,4.0487,-38.7986,0.73315
3.46,177.853,304.639,158.977,51.7124,4.93768,44.4494,0.582473
3.48,178.889,304.649,160.014,51.8332,6.04208,55.2195,0.421056
3.5,179.928,304.655,161.052,51.9167,4.1736,-93.4239,0.252182
3.52,180.968,304.658,162.092,52.0082,4.57523,20.0817,0.0751826
3.54,182.011,304.657,163.135,52.1491,7.04645,123.561,-0.114257
3.56,183.056,304.654,164.18,52.2439,4.73866,-115.389,-0.312033
3.58,184.103,304.646,165.227,52.3406,4.83519,4.82624,-0.518245
3.6,185.152,304.635,166.276,52.4707,6.50482,83.4815,-0.735766
3.62,186.204,304.619,167.328,52.5991,6.42115,-4.18348,-0.964378
3.64,187.257,304.599,168.381,52.6525,2.66773,-187.671,-1.2018
3.66,188.313,304.575,169.438,52.819,8.32395,282.811,-1.44912
3.68,189.372,304.545,170.498,52.9893,8.51512,9.55828,-1.71089
3.7,190.433,304.511,171.559,53.0542,3.24657,-263.428,-1.98226
3.72,191.497,304.472,172.623,53.2283,8.70412,272.878,-2.26381
3.74,192.562,304.427,173.69,53.3397,5.56809,-156.801,-2.55871
3.76,193.631,304.377,174.76,53.5027,8.15145,129.168,-2.867
3.78,194.702,304.32,175.832,53.5911,4.41912,-186.617,-3.18616
3.8,195.776,304.258,176.908,53.7885,9.87181,272.635,-3.5171
3.82,196.851,304.188,177.986,53.8983,5.48796,-219.192,-3.8649
3.84,197.931,304.112,179.068,54.1191,11.0441,277.806,-4.22569
3.86,199.012,304.028,180.153,54.2335,5.71831,-266.288,-4.599
3.88,200.097,303.938,181.241,54.4162,9.13525,170.847,-4.9863
3.9,201.184,303.838,182.332,54.5715,7.76358,-68.5832,-5.393
3.92,202.275,303.732,183.429,54.8086,11.8572,204.681,-5.81373
3.94,203.367,303.617,184.527,54.9148,5.30993,-327.364,-6.24903
3.96,204.463,303.492,185.63,55.1439,11.4542,307.216,-6.70068
3.98,205.561,303.358,186.737,55.3383,9.71754,-86.8352,-7.17409
4,206.664,303.215,187.848,55.5747,11.8199,105.119,-7.66393
4.02,207.769,303.062,188.964,55.7711,9.82395,-99.7982,-8.17077
4.04,208.875,302.898,190.083,55.9514,9.01454,-40.4704,-8.69597
4.06,209.987,302.722,191.208,56.2485,14.8515,291.849,-9.2457
4.08,211.1,302.536,192.337,56.4517,10.1625,-234.451,-9.81568
4.1,212.216,302.336,193.47,56.6743,11.1309,48.4184,-10.4057
4.12,213.335,302.125,194.609,56.9455,13.5596,121.437,-11.0168
4.14,214.457,301.9,195.753,57.1874,12.0955,-73.2035,-11.6521
4.16,215.583,301.662,196.904,57.5537,18.3129,310.871,-12.3151
4.18,216.71,301.409,198.059,57.755,10.0632,-412.489,-13.0018
4.2,217.84,301.14,199.22,58.0705,15.7775,285.719,-13.713
4.22,218.972,300.857,200.387,58.3551,14.2311,-77.3204,-14.4496
4.24,220.107,300.556,201.561,58.6897,16.727,124.795,-15.2142
4.26,221.244,300.239,202.742,59.0473,17.8832,57.8064,-16.0123
4.28,222.383,299.903,203.93,59.3705,16.159,-86.21,-16.8388
4.3,223.523,299.548,205.124,59.7156,17.2562,54.8602,-17.6947
4.32,224.664,299.175,206.324,60.0106,14.7462,-125.498,-18.5802
4.34,225.795,298.785,207.52,59.817,-9.67942,-1221.28,-19.4889
4.36,226.909,298.381,208.706,59.2755,-27.0735,-869.706,-20.4141
4.38,228.005,297.962,209.879,58.6366,-31.9429,-243.47,-21.36
4.4,229.083,297.531,211.04,58.071,-28.2844,182.924,-22.3212
4.42,230.142,297.085,212.188,57.4145,-32.823,-226.925,-23.2975
4.44,231.183,296.626,213.327,56.9084,-25.3039,375.955,-24.2881
4.46,232.207,296.154,214.454,56.3872,-26.0609,-37.8505,-25.2928
4.48,233.214,295.667,215.573,55.9221,-23.257,140.191,-26.3113
4.5,234.204,295.167,216.682,55.4667,-22.7686,24.4248,-27.3432
4.52,235.179,294.652,217.784,55.1101,-17.8299,246.934,-28.3881
4.54,236.136,294.123,218.878,54.6808,-21.4622,-181.614,-29.4461
4.56,237.077,293.579,219.965,54.3611,-15.9873,273.741,-30.5178
4.58,238.004,293.022,221.046,54.0417,-15.9709,0.820059,-31.6042
4.6,238.913,292.451,222.119,53.6573,-19.2206,-162.483,-32.7021
4.62,239.806,291.866,223.187,53.4095,-12.3899,341.532,-33.81
4.64,240.683,291.265,224.25,53.1446,-13.2441,-42.7088,-34.9274
4.66,241.545,290.65,225.309,52.9594,-9.25993,199.21,-36.0538
4.68,242.392,290.021,226.364,52.7333,-11.3065,-102.327,-37.1894
4.7,243.221,289.379,227.413,52.4428,-14.5219,-160.771,-38.3343
4.72,244.036,288.721,228.46,52.3492,-4.68299,491.945,-39.4858
4.74,244.835,288.05,229.503,52.171,-8.90689,-211.195,-40.6434
4.76,245.618,287.363,230.545,52.0983,-3.63843,263.423,-41.8065
4.78,246.385,286.663,231.583,51.9113,-9.34949,-285.553,-42.9756
4.8,247.137,285.949,232.621,51.8582,-2.65364,334.792,-44.1487
4.82,247.872,285.22,233.656,51.7739,-4.21692,-78.1642,-45.3248
4.84,248.592,284.476,234.691,51.7683,-0.276665,197.013,-46.5031
4.86,249.297,283.719,235.725,51.7034,-3.24832,-148.583,-47.6833
4.88,249.985,282.947,236.76,51.7127,0.469253,185.879,-48.8641
4.9,250.657,282.162,237.794,51.6901,-1.134,-80.1626,-50.0445
4.92,251.314,281.361,238.829,51.7821,4.60288,286.844,-51.2236
4.94,251.954,280.547,239.865,51.7725,-0.481704,-254.229,-52.4006
4.96,252.578,279.718,240.902,51.8637,4.56117,252.144,-53.5733
4.98,253.186,278.876,241.941,51.9344,3.53486,-51.3157,-54.742
5,253.779,278.02,242.982,52.0535,5.95559,121.037,-55.906
5.02,254.355,277.151,244.024,52.1404,4.34176,-80.6914,-57.0647
5.04,254.915,276.266,245.072,52.3672,11.3409,349.955,-58.2156
5.06,255.46,275.368,246.123,52.5381,8.54512,-139.787,-59.3584
5.08,255.988,274.456,247.176,52.6844,7.31788,-61.3624,-60.4933
5.1,256.5,273.529,248.235,52.9255,12.0542,236.817,-61.6196
5.12,256.996,272.589,249.298,53.1567,11.5614,-24.6415,-62.7368
5.14,257.477,271.633,250.368,53.5039,17.3578,289.818,-63.8421
5.16,257.942,270.663,251.444,53.7779,13.6986,-182.957,-64.9356
5.18,258.391,269.678,252.526,54.1426,18.2351,226.824,-66.0179
5.2,258.824,268.678,253.616,54.4785,16.7966,-71.9235,-67.0873
5.22,259.241,267.665,254.712,54.7896,15.5563,-62.0154,-68.1421
5.24,259.643,266.635,255.817,55.2586,23.4509,394.727,-69.181
5.26,260.03,265.591,256.93,55.6665,20.3924,-152.925,-70.2056
5.28,260.401,264.53,258.055,56.2496,29.1574,438.253,-71.2136
5.3,260.757,263.451,259.191,56.8022,27.6255,-76.594,-72.2066
5.32,261.099,262.355,260.339,57.3969,29.7354,105.495,-73.1844
5.34,261.426,261.241,261.5,58.0177,31.0432,65.3868,-74.1466
5.36,261.736,260.109,262.674,58.7262,35.4251,219.098,-75.0912
5.38,262.033,258.959,263.861,59.3663,32.0036,-171.078,-76.0141
5.4,262.312,257.795,265.059,59.8722,25.2929,-335.535,-76.9131
5.42,262.575,256.628,266.254,59.7765,-4.78194,-1503.74,-77.7823
5.44,262.817,255.464,267.444,59.4775,-14.9501,-508.409,-78.6176
5.46,263.042,254.303,268.626,59.1055,-18.5998,-182.485,-79.4193
5.48,263.25,253.149,269.799,58.6489,-22.8299,-211.504,-80.1826
5.5,263.441,251.999,270.964,58.2707,-18.9106,195.966,-80.9093
5.52,263.617,250.855,272.122,57.8657,-20.252,-67.0693,-81.6043
5.54,263.778,249.716,273.273,57.5355,-16.5082,187.186,-82.2692
5.56,263.925,248.581,274.417,57.2146,-16.0442,23.2039,-82.9036
5.58,264.06,247.453,275.553,56.8004,-20.711,-233.34,-83.5031
5.6,264.181,246.331,276.682,56.4385,-18.0954,130.779,-84.0713
5.62,264.293,245.213,277.804,56.1399,-14.9307,158.235,-84.6129
5.64,264.392,244.101,278.921,55.85,-14.4957,21.7513,-85.1287
5.66,264.481,242.995,280.031,55.4942,-17.7882,-164.629,-85.6121
5.68,264.561,241.895,281.134,55.135,-17.9586,-8.51571,-86.0662
5.7,264.632,240.799,282.232,54.8852,-12.4907,273.392,-86.4966
5.72,264.695,239.708,283.325,54.6446,-12.0327,22.8991,-86.903
5.74,264.749,238.625,284.409,54.2327,-20.5933,-428.026,-87.2794
5.76,264.797,237.557,285.478,53.431,-40.087,-974.686,-87.626
5.78,264.837,236.523,286.513,51.7784,-82.6295,-2127.13,-87.9427
5.8,264.87,235.531,287.505,49.5955,-109.143,-1325.66,-88.2265
5.82,264.897,234.583,288.454,47.4153,-109.009,6.67573,-88.4774
5.84,264.92,233.676,289.361,45.3848,-101.528,374.069,-88.6997
5.86,264.938,232.808,290.23,43.4288,-97.7968,186.553,-88.8998
5.88,264.952,231.986,291.052,41.0961,-116.636,-941.973,-89.0752
5.9,264.964,231.208,291.829,38.8842,-110.595,302.041,-89.2233
5.92,264.972,230.467,292.571,37.0816,-90.131,1023.22,-89.3537
5.94,264.979,229.756,293.282,35.5234,-77.9073,611.185,-89.4702
5.96,264.985,229.105,293.933,32.5799,-147.179,-3463.57,-89.5653
5.98,264.99,228.48,294.558,31.2199,-68.0001,3958.93,-89.6507
6,264.993,227.895,295.143,29.2536,-98.3134,-1515.66,-89.7215
6.02,264.995,227.356,295.681,26.9412,-115.622,-865.413,-89.778
6.04,264.996,226.845,296.192,25.5446,-69.8285,2289.66,-89.826
6.06,264.998,226.385,296.653,23.029,-125.777,-2797.44,-89.8638
6.08,264.998,225.956,297.082,21.4608,-78.4145,2368.14,-89.8956
6.1,264.999,225.552,297.486,20.1688,-64.5956,690.944,-89.9237
6.12,264.999,225.224,297.814,16.4008,-188.402,-6190.34,-89.9414
6.14,265,224.896,298.142,16.4009,0.00384049,9420.31,-89.9591
6.16,265,224.602,298.436,14.7213,-83.9786,-4199.12,-89.9742
6.18,265,224.467,298.571,6.72836,-399.647,-15783.4,-89.9767
6.2,265,224.333,298.705,6.72836,2.49611e-08,19982.4,-89.9792
6.22,265,224.197,298.841,6.77723,2.44328,122.164,-89.9816
6.24,265,224.063,298.975,6.72836,-2.44328,-244.328,-89.9841
6.26,265,223.928,299.11,6.72836,1.69956e-08,122.164,-89.9866
6.28,265,223.793,299.244,6.72836,1.44902e-08,-1.25266e-07,-89.9891
6.3,265,223.659,299.379,6.72836,1.16893e-08,-1.40048e-07,-89.9916
