"time","x","y","position","velocity","acceleration","jerk","heading"
0,107.64,69.2563,0,0,0,0,88.4518
0.02,107.64,69.2649,0.0086,0.43,21.5,1075,88.4518
0.04,107.641,69.2859,0.0296238,1.05119,31.0595,477.975,88.4518
0.06,107.642,69.323,0.0667373,1.85567,40.2242,458.235,88.4518
0.08,107.643,69.3747,0.118452,2.58572,36.5025,-186.085,88.4519
0.1,107.645,69.4413,0.185082,3.3315,37.2889,39.3198,88.4519
0.12,107.647,69.5226,0.266411,4.06647,36.7484,-27.0226,88.452
0.14,107.65,69.6188,0.362663,4.81258,37.3054,27.8496,88.4521
0.16,107.653,69.7297,0.473603,5.54703,36.7225,-29.1457,88.4521
0.18,107.656,69.8555,0.599444,6.29203,37.25,26.374,88.4522
0.2,107.66,69.996,0.740006,7.02809,36.8029,-22.3542,88.4523
0.22,107.664,70.1514,0.895467,7.77305,37.2484,22.2727,88.4525
0.24,107.669,70.3216,1.06566,8.50963,36.829,-20.9681,88.4529
0.26,107.674,70.5065,1.25065,9.24934,36.9853,7.81543,88.4533
0.28,107.679,70.7063,1.45053,9.99409,37.2374,12.6049,88.4537
0.3,107.685,70.9208,1.66514,10.7304,36.8154,-21.1018,88.4542
0.32,107.691,71.1502,1.89455,11.4708,37.0225,10.3549,88.455
0.34,107.698,71.3943,2.13879,12.2119,37.0547,1.60951,88.4558
0.36,107.705,71.6532,2.39783,12.9519,36.9977,-2.84953,88.4567
0.38,107.712,71.927,2.67168,13.6924,37.0232,1.27738,88.4579
0.4,107.72,72.2156,2.96035,14.4339,37.0775,2.71408,88.4593
0.42,107.728,72.5189,3.26383,15.1736,36.9865,-4.55082,88.4607
0.44,107.737,72.8371,3.58215,15.9162,37.1265,7.00157,88.4627
0.46,107.745,73.1701,3.91524,16.6546,36.922,-10.2232,88.4647
0.48,107.755,73.5179,4.2632,17.3977,37.1552,11.6553,88.467
0.5,107.764,73.8805,4.62584,18.1321,36.7179,-21.8621,88.4697
0.52,107.775,74.2579,5.00344,18.88,37.3954,33.8767,88.4726
0.54,107.785,74.6502,5.39582,19.6193,36.966,-21.4745,88.4759
0.56,107.796,75.0571,5.80294,20.3561,36.839,-6.34813,88.4795
0.58,107.807,75.479,6.22499,21.1023,37.3089,23.4938,88.4837
0.6,107.819,75.9156,6.66177,21.8388,36.8278,-24.0543,88.4881
0.62,107.83,76.3672,7.11344,22.5837,37.2447,20.846,88.4931
0.64,107.843,76.8334,7.57988,23.322,36.9161,-16.4279,88.4985
0.66,107.855,77.3145,8.06111,24.0616,36.9811,3.2467,88.5044
0.68,107.868,77.8105,8.5573,24.8091,37.3738,19.6347,88.5109
0.7,107.881,78.3213,9.0682,25.5451,36.7977,-28.8021,88.5179
0.72,107.895,78.8468,9.59395,26.2876,37.1246,16.3424,88.5255
0.74,107.909,79.3872,10.1345,27.029,37.0712,-2.66806,88.5338
0.76,107.923,79.9426,10.69,27.7752,37.3098,11.9301,88.5427
0.78,107.937,80.5126,11.2603,28.5114,36.8106,-24.9606,88.5522
0.8,107.952,81.0975,11.8454,29.2546,37.1591,17.4255,88.5626
0.82,107.967,81.6972,12.4453,29.9958,37.0601,-4.95004,88.5736
0.84,107.982,82.3118,13.06,30.7375,37.0847,1.22853,88.5854
0.86,107.998,82.9412,13.6896,31.4807,37.1588,3.70687,88.5981
0.88,108.013,83.5855,14.3341,32.2211,37.0241,-6.73584,88.6116
0.9,108.029,84.2446,14.9933,32.9645,37.169,7.24533,88.6261
0.92,108.045,84.9185,15.6675,33.7062,37.0853,-4.18494,88.6414
0.94,108.062,85.6074,16.3566,34.4546,37.4196,16.716,88.6577
0.96,108.078,86.311,17.0604,35.1904,36.7883,-31.5646,88.6749
0.98,108.094,87.0295,17.779,35.9331,37.1346,17.3131,88.6933
1,108.111,87.7628,18.5126,36.6762,37.1553,1.03448,88.7126
1.02,108.128,88.5036,19.2535,37.0487,18.6271,-926.412,88.733
1.04,108.144,89.2444,19.9945,37.0493,0.02825,-929.94,88.7541
1.06,108.16,89.9853,20.7356,37.0557,0.321937,14.6843,88.7758
1.08,108.175,90.7262,21.4767,37.0516,-0.206317,-26.4127,88.7983
1.1,108.191,91.4671,22.2177,37.0543,0.136362,17.1339,88.8215
1.12,108.206,92.2082,22.9589,37.06,0.281576,7.26073,88.8454
1.14,108.221,92.9492,23.7001,37.0566,-0.165955,-22.3765,88.87
1.16,108.235,93.6903,24.4413,37.0623,0.284959,22.5457,88.8953
1.18,108.25,94.4313,25.1825,37.059,-0.165961,-22.546,88.9213
1.2,108.264,95.1725,25.9238,37.0657,0.333949,24.9955,88.948
1.22,108.277,95.9137,26.6651,37.0665,0.038387,-14.7781,88.9754
1.24,108.29,96.655,27.4065,37.0681,0.0839945,2.28037,89.0035
1.26,108.303,97.3963,28.1479,37.0698,0.0839937,-4.00806e-05,89.0323
1.28,108.315,98.1376,28.8893,37.0707,0.0417646,-2.11145,89.0618
1.3,108.327,98.8789,29.6308,37.0723,0.0839943,2.11148,89.092
1.32,108.339,99.6203,30.3722,37.0738,0.0719941,-0.600008,89.1228
1.34,108.35,100.361,31.1134,37.0599,-0.692775,-38.2385,89.1544
1.36,108.361,101.103,31.8551,37.0814,1.07188,88.233,89.1866
1.38,108.371,101.845,32.5967,37.0826,0.0605237,-50.568,89.2196
1.4,108.381,102.586,33.3384,37.084,0.0719951,0.573569,89.2532
1.42,108.39,103.328,34.0801,37.0851,0.0519014,-1.00468,89.2875
1.44,108.399,104.069,34.8218,37.0865,0.0719955,1.0047,89.3224
1.46,108.408,104.811,35.5636,37.0884,0.0959922,1.19984,89.3581
1.48,108.416,105.553,36.3054,37.0893,0.0432814,-2.63554,89.3944
1.5,108.423,106.295,37.0472,37.0904,0.0586561,0.768734,89.4314
1.52,108.43,107.037,37.789,37.0919,0.0719962,0.667004,89.469
1.54,108.437,107.778,38.5309,37.0936,0.0839934,0.599861,89.5073
1.56,108.443,108.52,39.2728,37.0946,0.0500368,-1.69783,89.5462
1.58,108.449,109.262,40.0147,37.096,0.0719942,1.09787,89.5857
1.6,108.454,110.004,40.7567,37.0973,0.065414,-0.329009,89.6259
1.62,108.458,110.746,41.4986,37.0985,0.056791,-0.431151,89.6667
1.64,108.462,111.488,42.2406,37.0999,0.0719963,0.760263,89.7081
1.66,108.466,112.23,42.9827,37.1013,0.0719937,-0.000128981,89.7501
1.68,108.469,112.972,43.7247,37.1025,0.0601718,-0.591095,89.7927
1.7,108.471,113.714,44.4668,37.1038,0.0635482,0.168821,89.8359
1.72,108.473,114.456,45.2089,37.1052,0.0719954,0.422363,89.8797
1.74,108.474,115.198,45.951,37.1063,0.0549279,-0.853377,89.924
1.76,108.475,115.941,46.6932,37.1078,0.0719947,0.85334,89.9689
1.78,108.475,116.683,47.4353,37.1087,0.0463078,-1.28435,90.0142
1.8,108.475,117.425,48.1775,37.1102,0.0719937,1.2843,90.0601
1.82,108.474,118.167,48.9198,37.1111,0.0496869,-1.11534,90.1064
1.84,108.472,118.909,49.662,37.1124,0.0650627,0.768794,90.1532
1.86,108.47,119.652,50.4043,37.1134,0.0479967,-0.853303,90.2004
1.88,108.467,120.394,51.1466,37.1148,0.0684419,1.02226,90.2481
1.9,108.463,121.136,51.8889,37.1157,0.0478204,-1.03108,90.2961
1.92,108.459,121.879,52.6312,37.1167,0.0479977,0.00886332,90.3445
1.94,108.454,122.621,53.3736,37.1177,0.0511996,0.160097,90.3932
1.96,108.449,123.363,54.116,37.1187,0.047996,-0.160181,90.4423
1.98,108.443,124.106,54.8583,37.1193,0.0305805,-0.870774,90.4915
2,108.436,124.848,55.6008,37.1207,0.0699546,1.9687,90.5411
2.02,108.429,125.59,56.3432,37.1209,0.0119992,-2.89777,90.5908
2.04,108.421,126.332,57.0846,37.0717,-2.46252,-123.726,90.6406
2.06,108.412,127.074,57.8271,37.1227,2.55257,250.754,90.6906
2.08,108.403,127.817,58.5695,37.1227,5.65348e-07,-127.628,90.7406
2.1,108.393,128.559,59.312,37.1236,0.0440913,2.20454,90.7907
2.12,108.383,129.301,60.0545,37.1234,-0.0120006,-2.8046,90.8407
2.14,108.372,130.044,60.7969,37.1241,0.0354708,2.37357,90.8907
2.16,108.36,130.786,61.5394,37.1246,0.0268475,-0.431162,90.9406
2.18,108.347,131.529,62.2819,37.1247,0.00622492,-1.03113,90.9902
2.2,108.334,132.271,63.0244,37.1243,-0.0239968,-1.51109,91.0396
2.22,108.32,133.013,63.7669,37.1247,0.021602,2.27994,91.0888
2.24,108.305,133.756,64.5094,37.1237,-0.047997,-3.47995,91.1376
2.26,108.29,134.497,65.2509,37.0735,-2.5105,-123.125,91.1859
2.28,108.274,135.239,65.9933,37.1236,2.50384,250.717,91.2338
2.3,108.258,135.981,66.7358,37.1222,-0.0719944,-128.792,91.2811
2.32,108.241,136.724,67.4782,37.1221,-0.00426612,3.38641,91.3279
2.34,108.224,137.466,68.2206,37.1202,-0.095994,-4.58639,91.3739
2.36,108.206,138.207,68.962,37.0697,-2.52415,-121.408,91.4192
2.38,108.187,138.949,69.7044,37.119,2.46575,249.495,91.4637
2.4,108.168,139.691,70.4467,37.1168,-0.107992,-128.687,91.5073
2.42,108.148,140.433,71.189,37.1157,-0.054136,2.69279,91.5499
2.44,108.128,141.174,71.9303,37.0634,-2.61908,-128.247,91.5915
2.46,108.107,141.916,72.6725,37.1121,2.43633,252.77,91.632
2.48,108.086,142.658,73.4147,37.1092,-0.14399,-129.016,91.6713
2.5,108.064,143.399,74.1559,37.0576,-2.58228,-121.914,91.7093
2.52,108.042,144.141,74.898,37.1044,2.34291,246.259,91.746
2.54,108.019,144.882,75.64,37.1028,-0.0800102,-121.146,91.7814
2.56,107.996,145.623,76.381,37.0492,-2.67878,-129.938,91.8153
2.58,107.972,146.365,77.1229,37.097,2.38616,253.247,91.8476
2.6,107.948,147.106,77.8648,37.0934,-0.179987,-128.307,91.8784
2.62,107.923,147.847,78.6056,37.0396,-2.69067,-125.534,91.9076
2.64,107.898,148.588,79.3473,37.0866,2.35343,252.205,91.9349
2.66,107.873,149.328,80.088,37.0328,-2.69056,-252.199,91.9606
2.68,107.847,150.069,80.8296,37.0802,2.36869,252.962,91.9845
2.7,107.821,150.81,81.5711,37.0754,-0.239982,-130.433,92.0064
2.72,107.795,151.55,82.3115,37.0211,-2.71444,-123.723,92.0265
2.74,107.769,152.291,83.0529,37.0665,2.27047,249.246,92.0447
2.76,107.743,153.031,83.7931,37.0113,-2.76244,-251.645,92.0607
2.78,107.716,153.772,84.5343,37.0585,2.35994,256.119,92.0748
2.8,107.689,154.511,85.2743,37.0037,-2.73832,-254.913,92.0869
2.82,107.662,155.252,86.0153,37.0486,2.24635,249.234,92.0969
2.84,107.635,155.991,86.7552,36.9936,-2.75032,-249.834,92.1048
2.86,107.608,156.731,87.4959,37.0388,2.25835,250.433,92.1107
2.88,107.58,157.47,88.2357,36.9856,-2.65735,-245.785,92.1145
2.9,107.553,158.211,88.9762,37.0282,2.12939,239.337,92.116
2.92,107.526,158.95,89.7157,36.9737,-2.72632,-242.785,92.1156
2.94,107.498,159.689,90.4561,37.0207,2.35119,253.876,92.1132
2.96,107.471,160.428,91.1954,36.9634,-2.86716,-260.918,92.1085
2.98,107.444,161.168,91.9356,37.0088,2.27035,256.875,92.1019
3,107.417,161.906,92.6746,36.954,-2.73832,-250.433,92.0933
3.02,107.39,162.646,93.4146,36.9989,2.24635,249.234,92.0826
3.04,107.363,163.384,94.1535,36.9444,-2.72632,-248.634,92.07
3.06,107.336,164.124,94.8933,36.9903,2.29435,251.033,92.0557
3.08,107.31,164.862,95.632,36.9333,-2.85191,-257.313,92.0392
3.1,107.284,165.601,96.3716,36.9792,2.29447,257.319,92.021
3.12,107.258,166.339,97.1101,36.9253,-2.69044,-249.246,92.0012
3.14,107.232,167.078,97.8495,36.9708,2.27047,248.046,91.9795
3.16,107.207,167.816,98.5878,36.915,-2.78866,-252.956,91.9561
3.18,107.182,168.555,99.327,36.9614,2.31859,255.362,91.9312
3.2,107.157,169.293,100.066,36.958,-0.167988,-124.329,91.9049
3.22,107.133,170.031,100.804,36.9039,-2.70256,-126.728,91.8769
3.24,107.109,170.77,101.543,36.9489,2.24786,247.521,91.8475
3.26,107.086,171.507,102.281,36.8945,-2.72213,-248.5,91.8169
3.28,107.062,172.246,103.02,36.9429,2.42216,257.214,91.785
3.3,107.04,172.984,103.759,36.9367,-0.311318,-136.674,91.7518
3.32,107.017,173.721,104.496,36.8856,-2.5548,-112.174,91.7175
3.34,106.995,174.46,105.235,36.9316,2.30282,242.881,91.6822
3.36,106.974,175.198,105.974,36.9275,-0.204594,-125.371,91.6458
3.38,106.953,175.935,106.711,36.8754,-2.60699,-120.12,91.6085
3.4,106.932,176.673,107.45,36.9235,2.403,250.499,91.5704
3.42,106.912,177.411,108.188,36.9202,-0.165224,-128.411,91.5315
3.44,106.893,178.15,108.926,36.9169,-0.161847,0.16884,91.4918
3.46,106.874,178.887,109.664,36.8653,-2.58317,-121.066,91.4514
3.48,106.855,179.625,110.402,36.914,2.43918,251.118,91.4105
3.5,106.837,180.363,111.14,36.9114,-0.134476,-128.683,91.369
3.52,106.82,181.101,111.878,36.9092,-0.107101,1.36878,91.3271
3.54,106.803,181.839,112.616,36.908,-0.0599964,2.35522,91.2847
3.56,106.787,182.576,113.354,36.8559,-2.60314,-127.157,91.2419
3.58,106.771,183.314,114.092,36.9052,2.46342,253.328,91.1988
3.6,106.756,184.051,114.83,36.9037,-0.0763517,-126.988,91.1555
3.62,106.741,184.789,115.568,36.9032,-0.0239979,2.61769,91.112
3.64,106.728,185.527,116.306,36.9017,-0.0729759,-2.4489,91.0683
3.66,106.714,186.265,117.044,36.9015,-0.011998,3.04889,91.0245
3.68,106.701,187.002,117.781,36.8506,-2.54522,-126.661,90.9807
3.7,106.689,187.74,118.519,36.8995,2.44539,249.53,90.9368
3.72,106.677,188.478,119.257,36.8995,-5.48113e-07,-122.27,90.8929
3.74,106.666,189.216,119.995,36.8992,-0.0148482,-0.742384,90.8492
3.76,106.655,189.954,120.733,36.8992,1.70203e-07,0.74242,90.8055
3.78,106.645,190.692,121.471,36.8987,-0.0234707,-1.17354,90.7619
3.8,106.636,191.429,122.209,36.8986,-0.00809224,0.768921,90.7185
3.82,106.627,192.167,122.947,36.8993,0.0359959,2.20441,90.6754
3.84,106.618,192.905,123.685,36.8995,0.0120006,-1.19977,90.6324
3.86,106.61,193.643,124.423,36.8997,0.0072817,-0.235944,90.5897
3.88,106.603,194.381,125.161,36.8999,0.0106614,0.168984,90.5473
3.9,106.596,195.119,125.899,36.9006,0.0359971,1.26678,90.5052
3.92,106.59,195.857,126.637,36.9011,0.0260381,-0.49795,90.4635
3.94,106.584,196.595,127.375,36.9019,0.0359975,0.497971,90.4221
3.96,106.579,197.333,128.113,36.9025,0.0294158,-0.329084,90.3811
3.98,106.574,198.071,128.851,36.9034,0.0479969,0.929056,90.3405
4,106.57,198.809,129.589,36.9043,0.0447928,-0.160203,90.3004
4.02,106.567,199.548,130.327,36.905,0.036174,-0.430943,90.2607
4.04,106.564,200.286,131.065,36.906,0.0479949,0.591047,90.2214
4.06,106.561,201.024,131.803,36.9072,0.0599963,0.600069,90.1826
4.08,106.559,201.762,132.542,36.9082,0.0515492,-0.422355,90.1443
4.1,106.557,202.5,133.28,36.9094,0.0599962,0.422352,90.1065
4.12,106.556,203.238,134.018,36.9105,0.0549276,-0.253432,90.0692
4.14,106.555,203.977,134.756,36.9117,0.0599961,0.253424,90.0324
4.16,106.555,204.715,135.494,36.9131,0.0703053,0.51546,89.9962
4.18,106.555,205.453,136.233,36.9143,0.0599959,-0.515472,89.9605
4.2,106.556,206.191,136.971,36.9156,0.0616848,0.0844489,89.9253
4.22,106.557,206.93,137.709,36.9172,0.0839938,1.11545,89.8908
4.24,106.559,207.668,138.448,36.9183,0.0530645,-1.54647,89.8567
4.26,106.561,208.407,139.186,36.92,0.0839935,1.54645,89.8233
4.28,106.564,209.145,139.925,36.9216,0.0804416,-0.177592,89.7905
4.3,106.567,209.883,140.663,36.9228,0.0599948,-1.02234,89.7582
4.32,106.57,210.622,141.402,36.9245,0.0839943,1.19998,89.7266
4.34,106.574,211.36,142.14,36.9259,0.0718198,-0.608728,89.6955
4.36,106.578,212.099,142.879,36.9276,0.0839938,0.608701,89.6651
4.38,106.582,212.837,143.617,36.9288,0.0599965,-1.19986,89.6352
4.4,106.587,213.576,144.356,36.9308,0.0991955,1.95995,89.606
4.42,106.592,214.315,145.094,36.9322,0.071995,-1.36003,89.5774
4.44,106.598,215.053,145.833,36.9343,0.102575,1.52898,89.5495
4.46,106.604,215.792,146.572,36.9357,0.0719944,-1.52901,89.5222
4.48,106.61,216.531,147.311,36.9371,0.0719952,3.73093e-05,89.4955
4.5,106.617,217.269,148.048,36.889,-2.40593,-123.896,89.4694
4.52,106.624,218.007,148.787,36.9407,2.58388,249.491,89.444
4.54,106.631,218.746,149.526,36.9421,0.0719951,-125.594,89.4192
4.56,106.639,219.485,150.265,36.9443,0.10933,1.86677,89.3951
4.58,106.647,220.224,151.004,36.9458,0.0719945,-1.8668,89.3716
4.6,106.655,220.963,151.743,36.9474,0.0839941,0.599981,89.3488
4.62,106.664,221.702,152.482,36.9495,0.100709,0.835766,89.3266
4.64,106.673,222.441,153.221,36.9511,0.0839935,-0.835795,89.3051
4.66,106.682,223.18,153.96,36.9528,0.0839939,1.92681e-05,89.2843
4.68,106.691,223.919,154.699,36.9543,0.0719951,-0.599941,89.2641
4.7,106.701,224.658,155.438,36.9566,0.116086,2.20454,89.2446
4.72,106.711,225.385,156.165,36.359,-29.8772,-1499.67,89.2261
4.74,106.72,226.099,156.879,35.7106,-32.4221,-127.244,89.2085
4.76,106.73,226.797,157.578,34.914,-39.8308,-370.435,89.192
4.78,106.74,227.48,158.261,34.1662,-37.3881,122.135,89.1764
4.8,106.75,228.15,158.93,33.4687,-34.8762,125.595,89.1618
4.82,106.759,228.804,159.585,32.72,-37.436,-127.99,89.148
4.84,106.769,229.443,160.224,31.9727,-37.3633,3.63552,89.135
4.86,106.778,230.069,160.85,31.274,-34.9376,121.285,89.1228
4.88,106.788,230.678,161.459,30.477,-39.8488,-245.563,89.1115
4.9,106.797,231.274,162.055,29.7782,-34.939,245.49,89.101
4.92,106.806,231.854,162.635,29.0297,-37.4236,-124.229,89.0911
4.94,106.815,232.42,163.201,28.2813,-37.4234,0.0116224,89.0818
4.96,106.824,232.971,163.752,27.5335,-37.3871,1.81244,89.0734
4.98,106.833,233.507,164.288,26.8348,-34.9352,122.596,89.0655
5,106.841,234.029,164.81,26.0853,-37.4753,-127.004,89.0581
5.02,106.85,234.534,165.316,25.2879,-39.8692,-119.694,89.0514
5.04,106.858,235.027,165.809,24.6384,-32.4778,369.567,89.0452
5.06,106.866,235.504,166.286,23.8397,-39.9346,-372.837,89.0395
5.08,106.874,235.966,166.747,23.091,-37.4346,125,89.0343
5.1,106.881,236.413,167.195,22.3912,-34.9884,122.306,89.0295
5.12,106.889,236.846,167.628,21.6436,-37.38,-119.577,89.0253
5.14,106.896,237.264,168.046,20.8933,-37.5142,-6.71247,89.0213
5.16,106.903,237.668,168.45,20.1949,-34.9229,129.565,89.0179
5.18,106.909,238.056,168.838,19.3944,-40.0236,-255.035,89.0146
5.2,106.916,238.43,169.212,18.6968,-34.8802,257.17,89.0119
5.22,106.922,238.788,169.571,17.9463,-37.5264,-132.31,89.0093
5.24,106.928,239.132,169.914,17.1973,-37.4465,3.99393,89.0071
5.26,106.934,239.461,170.243,16.4482,-37.458,-0.575042,89.0052
5.28,106.939,239.776,170.558,15.7477,-35.0256,121.624,89.0034
5.3,106.944,240.076,170.858,14.9987,-37.447,-121.074,89.002
5.32,106.949,240.361,171.143,14.2491,-37.4825,-1.77377,89.0007
5.34,106.954,240.631,171.413,13.4994,-37.4819,0.0304503,88.9995
5.36,106.958,240.886,171.668,12.7496,-37.4893,-0.36985,88.9987
5.38,106.963,241.127,171.909,12.0507,-34.9488,127.027,88.9979
5.4,106.967,241.352,172.134,11.2499,-40.0408,-254.6,88.9971
5.42,106.97,241.563,172.345,10.5501,-34.9876,252.66,88.9967
5.44,106.974,241.76,172.542,9.85107,-34.9518,1.78838,88.9963
5.46,106.977,241.941,172.723,9.05028,-40.0394,-254.378,88.9959
5.48,106.98,242.108,172.89,8.35063,-34.9828,252.829,88.9956
5.5,106.982,242.259,173.041,7.55018,-40.0222,-251.973,88.9954
5.52,106.985,242.396,173.178,6.8514,-34.939,254.162,88.9953
5.54,106.987,242.518,173.3,6.10058,-37.5411,-130.106,88.9952
5.56,106.989,242.626,173.408,5.40093,-34.9827,127.922,88.9952
5.58,106.991,242.718,173.5,4.60085,-40.0039,-251.063,88.9951
5.6,106.992,242.796,173.578,3.90008,-35.0383,248.282,88.995
5.62,106.993,242.859,173.641,3.1504,-37.4842,-122.293,88.995
5.64,106.994,242.907,173.689,2.40052,-37.4938,-0.480761,88.995
5.66,106.994,242.941,173.723,1.69976,-35.038,122.788,88.9949
5.68,106.995,242.957,173.74,0.801561,-44.91,-493.596,88.9949
