"time","x","y","position","velocity","acceleration","jerk","heading"
0,18.9474,160,0,0,120,0,0
0.02,19.1023,160,0.154919,2.4,120,0,0
0.04,19.2572,160,0.309839,4.8,120,0,0
0.06,19.4121,160,0.464758,7.2,120,0,0
0.08,19.567,160,0.619677,9.6,120,0,0
0.1,19.722,160,0.774597,12,120,0,0
0.12,19.8769,160,0.929516,14.4,120,0,0
0.14,20.1512,160,1.20384,16.8,120,0,0
0.16,20.5252,160,1.57785,19.2,120,0,0
0.18,20.8992,160,1.95186,21.6,120,0,0
0.2,21.3721,160,2.42468,24,120,0,0
0.22,21.8595,160,2.9121,26.4,120,0,0
0.24,22.4213,160,3.4739,28.8,120,0,0
0.26,23.0065,160,4.0591,31.2,120,0,0
0.28,23.6627,160,4.71535,33.6,120,0,0
0.3,24.3584,160,5.41103,36,120,0,0
0.32,25.0962,160,6.14888,38.4,120,0,0
0.34,25.8856,160,6.93823,40.8,120,0,0
0.36,26.7291,160,7.78169,43.2,120,0,0
0.38,27.6179,160,8.6705,45.6,120,0,0
0.4,28.5537,160,9.60629,48,120,0,0
0.42,29.5371,160,10.5898,50.4,120,0,0
0.44,30.5685,160,11.6211,52.8,120,0,0
0.46,31.6476,160,12.7002,55.2,120,0,0
0.48,32.774,160,13.8267,57.6,120,0,0
0.5,33.9474,160,15,60,120,0,0
0.52,35.174,160,16.2267,62.4,120,0,0
0.54,36.4469,160,17.4996,64.8,120,0,0
0.56,37.7654,160,18.818,67.2,120,0,0
0.58,39.1332,160,20.1858,69.6,120,0,0
0.6,40.5502,160,21.6028,72,120,0,0
0.62,42.012,160,23.0646,74.4,120,0,0
0.64,43.5259,160,24.5785,76.8,120,0,0
0.66,45.0845,160,26.1371,79.2,120,0,0
0.68,46.6931,160,27.7457,81.6,120,0,0
0.7,48.3494,160,29.402,84,120,0,0
0.72,50.0521,160,31.1047,86.4,120,0,0
0.74,51.8043,160,32.8569,88.8,120,0,0
0.76,53.605,160,34.6576,91.2,120,0,0
0.78,55.4531,160,36.5057,93.6,120,0,0
0.8,57.3489,160,38.4016,96,120,0,0
0.82,59.2928,160,40.3454,98.4,120,0,0
0.84,61.2847,160,42.3373,100.8,120,0,0
0.86,63.3247,160,44.3773,103.2,120,0,0
0.88,65.4127,160,46.4653,105.6,120,0,0
0.9,67.5486,160,48.6012,108,120,0,0
0.92,69.7322,160,50.7848,110.4,120,0,0
0.94,71.9634,160,53.0161,112.8,120,0,0
0.96,74.2443,160,55.2969,115.2,120,0,0
0.98,76.5724,160,57.625,117.6,120,0,0.0203219
1,78.9474,160.002,60,120,-106.968,0,0.0954132
1.02,81.3241,160.009,62.3767,117.709,-120,0,0.219889
1.04,83.6543,160.02,64.707,115.309,-120,0,0.36694
1.06,85.9373,160.038,66.99,112.909,-120,0,0.52099
1.08,88.1705,160.061,69.2234,110.509,-120,0,0.66772
1.1,90.3562,160.089,71.4092,108.109,-120,0,0.796247
1.12,92.494,160.121,73.5473,105.709,-120,0,0.898145
1.14,94.5839,160.155,75.6375,103.309,-120,0,0.966809
1.16,96.6258,160.191,77.6797,100.909,-120,0,0.99797
1.18,98.6196,160.225,79.6738,98.509,-120,0,0.98814
1.2,100.565,160.258,81.6198,96.109,-120,0,0.934822
1.22,102.463,160.288,83.5178,93.709,-120,0,0.83631
1.24,104.313,160.313,85.368,91.309,-120,0,0.691531
1.26,106.116,160.332,87.1708,88.909,-120,0,0.499901
1.28,107.871,160.344,88.9255,86.509,-120,0,0.260797
1.3,109.575,160.348,90.6303,84.109,-120,0,-0.0250797
1.32,111.234,160.343,92.2886,81.709,-120,0,-0.354402
1.34,112.845,160.328,93.8998,79.309,-120,0,-0.732922
1.36,114.405,160.302,95.4603,76.909,-120,0,-1.16557
1.38,115.921,160.266,96.9767,74.509,-120,0,-1.63742
1.4,117.384,160.218,98.4403,72.109,-120,0,-2.15556
1.42,118.802,160.158,99.8599,69.709,-120,0,-2.71811
1.44,120.169,160.086,101.229,67.309,-120,0,-3.31973
1.46,121.488,160.003,102.55,64.909,-120,0,-3.96516
1.48,122.76,159.907,103.826,62.509,-120,0,-4.65623
1.5,123.983,159.8,105.053,60.109,-120,0,-5.37394
1.52,125.152,159.683,106.229,57.709,-111.597,0,-6.14126
1.54,126.276,159.554,107.36,55.5478,-95.0869,0,-6.93364
1.56,127.359,159.415,108.451,53.6056,-108.69,0,-7.76395
1.58,128.398,159.266,109.501,51.4435,-86.3902,0,-8.62504
1.6,129.397,159.107,110.513,49.7232,-87.2389,0,-9.51858
1.62,130.359,158.938,111.489,47.9798,-82.0987,0,-10.4524
1.64,131.285,158.76,112.432,46.3213,-67.7563,0,-11.406
1.66,132.178,158.572,113.345,44.977,-74.1117,0,-12.3965
1.68,133.041,158.375,114.231,43.4934,-68.0119,0,-13.4296
1.7,133.873,158.169,115.088,42.0736,-50.6949,0,-14.4744
1.72,134.677,157.953,115.92,41.0815,-60.9798,0,-15.5619
1.74,135.452,157.73,116.727,39.8659,-56.7486,0,-16.6951
1.76,136.202,157.497,117.512,38.7214,-47.4359,0,-17.843
1.78,136.928,157.256,118.277,37.7318,-42.1933,0,-19.017
1.8,137.634,157.005,119.026,36.9189,-46.6845,0,-20.2286
1.82,138.312,156.746,119.752,35.9824,-42.7527,0,-21.4864
1.84,138.97,156.48,120.462,35.1172,-36.6099,0,-22.7577
1.86,139.61,156.203,121.159,34.3374,-31.2596,0,-24.0471
1.88,140.228,155.919,121.839,33.717,-32.2849,0,-25.3729
1.9,140.826,155.627,122.505,33.0736,-30.7676,0,-26.741
1.92,141.41,155.325,123.162,32.4406,-28.0404,0,-28.1279
1.94,141.973,155.015,123.805,31.8597,-24.0587,0,-29.5322
1.96,142.518,154.698,124.436,31.3651,-21.1189,0,-30.9549
1.98,143.05,154.37,125.061,30.916,-18.7829,0,-32.3913
2,143.564,154.035,125.674,30.5384,-17.7953,0,-33.8788
2.02,144.064,153.69,126.281,30.1759,-16.0159,0,-35.3765
2.04,144.549,153.336,126.882,29.8305,-13.3369,0,-36.8857
2.06,145.019,152.974,127.475,29.5568,-10.7041,0,-38.4089
2.08,145.476,152.601,128.065,29.3104,-8.17023,0,-39.9377
2.1,145.919,152.221,128.649,29.1429,-6.33078,0,-41.4839
2.12,146.35,151.829,129.231,29.0005,-4.44343,0,-43.0386
2.14,146.767,151.429,129.81,28.896,-2.48387,0,-44.606
2.16,147.173,151.018,130.387,28.837,-0.14838,0,-46.174
2.18,147.566,150.596,130.964,28.8002,2.37078,0,-47.7422
2.2,147.948,150.164,131.541,28.8453,4.17322,0,-49.3105
2.22,148.319,149.721,132.118,28.9083,5.9992,0,-50.8783
2.24,148.678,149.266,132.698,29.0197,8.10371,0,-52.4439
2.26,149.027,148.8,133.28,29.1658,10.5031,0,-53.9982
2.28,149.364,148.322,133.865,29.3498,13.2237,0,-55.54
2.3,149.691,147.831,134.455,29.6054,15.8532,0,-57.0678
2.32,150.007,147.328,135.049,29.8895,18.2833,0,-58.5901
2.34,150.314,146.809,135.652,30.2544,18.7539,0,-60.0974
2.36,150.611,146.278,136.26,30.6259,20.7242,0,-61.5901
2.38,150.896,145.733,136.876,31.0064,24.7402,0,-63.0629
2.4,151.173,145.17,137.503,31.4911,28.7775,0,-64.4968
2.42,151.438,144.595,138.136,32.0291,31.8412,0,-65.9161
2.44,151.695,144,138.784,32.6685,31.2305,0,-67.3173
2.46,151.942,143.387,139.445,33.2954,33.5824,0,-68.7001
2.48,152.177,142.76,140.115,33.9351,38.1136,0,-70.0607
2.5,152.404,142.112,140.802,34.6706,46.1191,0,-71.3565
2.52,152.621,141.442,141.506,35.572,45.9198,0,-72.6372
2.54,152.828,140.753,142.225,36.5102,45.3392,0,-73.904
2.56,153.024,140.043,142.962,37.3797,51.4517,0,-75.153
2.58,153.211,139.305,143.723,38.4064,64.6091,0,-76.3198
2.6,153.388,138.544,144.504,39.6678,61.3177,0,-77.4737
2.62,153.554,137.756,145.309,40.9363,61.7335,0,-78.6072
2.64,153.709,136.942,146.138,42.0897,81.9031,0,-79.7037
2.66,153.854,136.099,146.993,43.704,89.2725,0,-80.7428
2.68,153.989,135.216,147.887,45.4892,74.4019,0,-81.7773
2.7,154.113,134.299,148.813,46.9818,111.106,0,-82.7443
2.72,154.226,133.343,149.775,49.1905,104.712,0,-83.6801
2.74,154.329,132.344,150.779,51.2874,8.36518,0,-84.5871
2.76,154.418,131.32,151.807,51.4472,-100.221,0,-85.4138
2.78,154.491,130.314,152.816,49.4309,-120,0,-86.1751
2.8,154.55,129.352,153.779,47.0309,-120,0,-86.8029
2.82,154.596,128.439,154.694,44.6309,-120,0,-87.3557
2.84,154.632,127.573,155.561,42.2309,-120,0,-87.8241
2.86,154.66,126.753,156.381,39.8309,-120,0,-88.2219
2.88,154.681,125.978,157.156,37.4309,-120,0,-88.5667
2.9,154.697,125.252,157.882,35.0309,-120,0,-88.8542
2.92,154.709,124.585,158.55,32.6309,-120,0,-89.0793
2.94,154.717,123.953,159.181,30.2309,-120,0,-89.2772
2.96,154.724,123.375,159.76,27.8309,-120,0,-89.4418
2.98,154.728,122.85,160.285,25.4309,-120,0,-89.566
3,154.731,122.363,160.772,23.0309,-120,0,-89.6616
3.02,154.733,121.935,161.199,20.6309,-120,0,-89.7407
3.04,154.734,121.561,161.573,18.2309,-120,0,-89.8056
3.06,154.735,121.187,161.947,15.8309,-120,0,-89.8704
3.08,154.736,121.002,162.133,13.4309,-120,0,-89.8883
3.1,154.736,120.847,162.288,11.0309,-120,0,-89.8985
3.12,154.736,120.692,162.443,8.63086,-120,0,-89.9088
3.14,154.736,120.537,162.598,6.23086,-120,0,-89.919
3.16,154.737,120.382,162.753,3.83086,-120,0,-89.9292
3.18,154.737,120.227,162.908,1.43086,-120,0,-89.9394
