"time","x","y","position","velocity","acceleration","jerk","heading"
0,196.234,116.147,0,0,0,0,86.8202
0.02,196.24,116.247,0.100227,5.01135,250.567,12528.4,86.8204
0.04,196.245,116.347,0.200375,5.00742,-0.196195,-12538.2,86.8205
0.06,196.251,116.447,0.300602,5.01135,0.196195,19.6195,86.8207
0.08,196.256,116.546,0.399752,4.95749,-2.69304,-144.462,86.8208
0.1,196.262,116.646,0.499979,5.01135,2.69304,269.304,86.821
0.12,196.267,116.746,0.600128,5.00742,-0.196195,-144.462,86.8211
0.14,196.273,116.846,0.700355,5.01135,0.196195,19.6195,86.8213
0.16,196.278,116.946,0.800503,5.00742,-0.196195,-19.6195,86.8214
0.18,196.284,117.046,0.90073,5.01135,0.196195,19.6195,86.8216
0.2,196.289,117.146,0.99988,4.95749,-2.69304,-144.462,86.8217
0.22,196.303,117.388,1.24252,12.132,358.726,18071,86.8227
0.24,196.316,117.629,1.48411,12.0793,-2.63563,-18068.1,86.8237
0.26,196.33,117.87,1.72575,12.0821,0.139821,138.773,86.8247
0.28,196.343,118.111,1.96733,12.0793,-0.139821,-13.9821,86.8257
0.3,196.36,118.415,2.27128,15.1974,155.904,7802.21,86.8277
0.32,196.377,118.73,2.58723,15.7977,30.0136,-6294.54,86.8298
0.34,196.395,119.045,2.90225,15.7505,-2.35724,-1618.54,86.8319
0.36,196.414,119.4,3.25746,17.7608,100.515,5143.62,86.8349
0.38,196.435,119.772,3.63085,18.6697,45.4425,-2753.63,86.8383
0.4,196.455,120.146,4.00519,18.7168,2.35884,-2154.18,86.8417
0.42,196.48,120.57,4.43003,21.2417,126.245,6194.3,86.8466
0.44,196.503,120.995,4.85483,21.2401,-0.0797671,-6316.23,86.8516
0.46,196.528,121.447,5.30794,22.6553,70.7579,3541.88,86.8576
0.48,196.553,121.916,5.77813,23.5099,42.7317,-1401.31,86.8641
0.5,196.58,122.407,6.26965,24.5756,53.283,527.562,86.8716
0.52,196.608,122.918,6.7814,25.5874,50.592,-134.551,86.88
0.54,196.637,123.449,7.3134,26.6005,50.6509,2.9477,86.8894
0.56,196.666,123.999,7.8636,27.5098,45.4649,-259.301,86.8997
0.58,196.697,124.573,8.43822,28.7311,61.0653,780.02,86.9115
0.6,196.73,125.158,9.024,29.2889,27.89,-1658.77,86.9238
0.62,196.763,125.777,9.64432,31.0162,86.3654,2923.77,86.9384
0.64,196.796,126.408,10.2758,31.576,27.9915,-2918.7,86.9539
0.66,196.831,127.059,10.9278,32.5964,51.0201,1151.43,86.9708
0.68,196.866,127.735,11.6051,33.8682,63.5902,628.508,86.9897
0.7,196.903,128.428,12.2988,34.685,40.8417,-1137.43,87.0099
0.72,196.94,129.139,13.0109,35.6053,46.0116,258.497,87.0317
0.74,196.978,129.877,13.7497,36.9356,66.5146,1025.15,87.056
0.76,197.016,130.632,14.5057,37.8045,43.4455,-1153.45,87.082
0.78,197.056,131.406,15.2813,38.777,48.626,259.021,87.1098
0.8,197.095,132.199,16.0753,39.7018,46.2393,-119.332,87.1398
0.82,197.137,133.018,16.8951,40.9894,64.3801,907.04,87.1727
0.84,197.177,133.856,17.7344,41.9629,48.6738,-785.317,87.2079
0.86,197.219,134.714,18.5933,42.9461,49.16,24.3097,87.2456
0.88,197.261,135.593,19.4728,43.9755,51.4704,115.523,87.2861
0.9,197.303,136.491,20.372,44.9598,49.2144,-112.801,87.3294
0.92,197.346,137.411,21.2929,46.0451,54.2688,252.719,87.3758
0.94,197.388,138.351,22.2335,47.0318,49.3354,-246.671,87.4254
0.96,197.431,139.312,23.196,48.122,54.5092,258.69,87.4785
0.98,197.474,140.293,24.1783,49.1147,49.6339,-243.761,87.5353
1,197.517,141.297,25.1825,50.2106,54.7974,258.173,87.5959
1.02,197.559,142.311,26.1974,50.7472,26.8283,-1398.46,87.66
1.04,197.599,143.327,27.2142,50.8376,4.51731,-1115.55,87.7277
1.06,197.639,144.342,28.2301,50.7962,-2.06663,-329.197,87.7963
1.08,197.678,145.358,29.247,50.8473,2.55444,231.053,87.8694
1.1,197.715,146.376,30.2653,50.9107,3.17027,30.7914,87.9438
1.12,197.751,147.393,31.2834,50.9055,-0.26325,-171.676,88.0223
1.14,197.786,148.411,32.3019,50.9249,0.974002,61.8626,88.1026
1.16,197.818,149.431,33.3221,51.0128,4.39531,171.065,88.1864
1.18,197.85,150.45,34.3419,50.9896,-1.16379,-277.955,88.2726
1.2,197.879,151.471,35.3633,51.0672,3.88039,252.209,88.3614
1.22,197.908,152.493,36.3853,51.1023,1.75483,-106.278,88.4533
1.24,197.935,153.514,37.4067,51.0708,-1.57382,-166.432,88.547
1.26,197.96,154.537,38.43,51.1619,4.55599,306.491,88.6443
1.28,197.984,155.56,39.4534,51.1701,0.410184,-207.291,88.7425
1.3,198.005,156.583,40.4766,51.1627,-0.371037,-39.061,88.8445
1.32,198.025,157.607,41.501,51.2213,2.92961,165.032,88.9474
1.34,198.043,158.632,42.526,51.2475,1.30856,-81.0524,89.0526
1.36,198.059,159.657,43.5512,51.2627,0.759837,-27.4363,89.1593
1.38,198.073,160.682,44.5767,51.2749,0.611716,-7.40606,89.2671
1.4,198.085,161.708,45.6025,51.2901,0.759675,7.39793,89.3763
1.42,198.095,162.734,46.6284,51.2925,0.121719,-31.8978,89.4858
1.44,198.104,163.76,47.6544,51.2987,0.308431,9.33562,89.5959
1.46,198.11,164.786,48.6802,51.2945,-0.211714,-26.0072,89.7057
1.48,198.114,165.811,49.7061,51.2916,-0.14281,3.44519,89.8153
1.5,198.116,166.837,50.7316,51.2748,-0.839669,-34.8429,89.9235
1.52,198.117,167.862,51.7568,51.2618,-0.651712,9.39786,90.0306
1.54,198.115,168.887,52.7816,51.2406,-1.05654,-20.2412,90.1359
1.56,198.112,169.911,53.8057,51.2054,-1.76089,-35.2177,90.2382
1.58,198.107,170.935,54.8294,51.1834,-1.09919,33.0849,90.3386
1.6,198.1,171.957,55.8521,51.1334,-2.50291,-70.186,90.4347
1.62,198.091,172.979,56.8738,51.0878,-2.27854,11.2184,90.5269
1.64,198.081,174,57.8949,51.0557,-1.60433,33.7104,90.6163
1.66,198.069,175.019,58.9134,50.9255,-6.50926,-245.247,90.6988
1.68,198.056,176.037,59.932,50.9267,0.0570703,328.317,90.7771
1.7,198.042,177.055,60.9496,50.879,-2.38135,-121.921,90.8513
1.72,198.026,178.07,61.9652,50.7796,-4.97067,-129.466,90.917
1.74,198.009,179.085,62.9798,50.7306,-2.45292,125.887,90.9784
1.76,197.991,180.098,63.9931,50.6655,-3.25493,-40.1004,91.0342
1.78,197.973,181.109,65.0044,50.5665,-4.94801,-84.654,91.0816
1.8,197.953,182.118,66.0137,50.4668,-4.98621,-1.91025,91.1247
1.82,197.933,183.126,67.0224,50.4353,-1.57505,170.558,91.1608
1.84,197.912,184.133,68.0295,50.3527,-4.13101,-127.798,91.1898
1.86,197.891,185.139,69.0356,50.3032,-2.474,82.8503,91.2146
1.88,197.87,186.143,70.0398,50.2101,-4.65348,-108.974,91.2315
1.9,197.848,187.145,71.0418,50.0999,-5.50871,-42.7613,91.2432
1.92,197.826,188.147,72.0438,50.104,0.202105,285.541,91.251
1.94,197.804,189.147,73.044,50.0097,-4.71239,-245.725,91.2508
1.96,197.783,190.146,74.0435,49.9745,-1.76198,147.521,91.2477
1.98,197.761,191.143,75.0408,49.8655,-5.44981,-184.391,91.2395
2,197.739,192.14,76.038,49.8589,-0.328038,256.088,91.2265
2.02,197.718,193.136,77.0347,49.832,-1.34965,-51.0803,91.2113
2.04,197.697,194.131,78.0299,49.7636,-3.41648,-103.342,91.1903
2.06,197.676,195.126,79.0248,49.7436,-1.00138,120.755,91.1676
2.08,197.656,196.119,80.0178,49.6513,-4.61241,-180.551,91.1414
2.1,197.637,197.112,81.0112,49.6709,0.978141,279.528,91.1127
2.12,197.618,198.105,82.0043,49.653,-0.893735,-93.5938,91.0824
2.14,197.6,199.097,82.9967,49.617,-1.80323,-45.4746,91.0492
2.16,197.582,200.089,83.9888,49.6087,-0.412338,69.5444,91.0153
2.18,197.564,201.08,84.9795,49.5316,-3.8544,-172.103,90.9791
2.2,197.548,202.071,85.9709,49.574,2.12009,298.724,90.9424
2.22,197.532,203.062,86.9621,49.5599,-0.706865,-141.347,90.9045
2.24,197.516,204.053,87.9532,49.554,-0.294521,20.6172,90.8661
2.26,197.502,205.044,88.9441,49.5462,-0.392177,-4.88282,90.8271
2.28,197.488,206.035,89.935,49.5431,-0.154056,11.906,90.7879
2.3,197.475,207.025,90.9258,49.5401,-0.151555,0.125079,90.7485
2.32,197.462,208.016,91.9167,49.5424,0.117809,13.4682,90.7093
2.34,197.45,209.007,92.9075,49.5418,-0.0312484,-7.45285,90.6701
2.36,197.439,209.998,93.8984,49.5471,0.265778,14.8513,90.6314
2.38,197.428,210.989,94.8894,49.5495,0.117809,-7.39841,90.5929
2.4,197.418,211.979,95.8795,49.506,-2.1727,-114.525,90.555
2.42,197.409,212.96,96.8609,49.0685,-21.8749,-985.11,90.5182
2.44,197.401,213.922,97.8226,48.0862,-49.1143,-1361.97,90.4829
2.46,197.394,214.863,98.7637,47.0519,-51.7152,-130.043,90.449
2.48,197.386,215.785,99.6861,46.1212,-46.536,258.956,90.4167
2.5,197.38,216.687,100.588,45.0881,-51.653,-255.846,90.3859
2.52,197.374,217.569,101.47,44.1058,-49.1153,126.882,90.3566
2.54,197.369,218.432,102.333,43.1732,-46.6311,124.209,90.3288
2.56,197.364,219.276,103.177,42.1897,-49.1745,-127.168,90.3024
2.58,197.36,220.101,104.002,41.256,-46.688,124.323,90.2774
2.6,197.357,220.908,104.809,40.3211,-46.7444,-2.8207,90.2537
2.62,197.353,221.691,105.592,39.1425,-58.9282,-609.187,90.2318
2.64,197.35,222.454,106.355,38.1564,-49.3039,481.215,90.2111
2.66,197.348,223.199,107.1,37.2704,-44.3011,250.138,90.1916
2.68,197.345,223.928,107.829,36.4335,-41.8434,122.888,90.1732
2.7,197.343,224.631,108.532,35.1522,-64.0658,-1111.12,90.1564
2.72,197.341,225.316,109.217,34.2652,-44.3519,985.697,90.1407
2.74,197.34,225.986,109.887,33.4757,-39.4753,243.83,90.1259
2.76,197.339,226.631,110.532,32.2434,-61.6164,-1107.06,90.1126
2.78,197.337,227.256,111.157,31.2541,-49.4638,607.627,90.1002
2.8,197.336,227.869,111.77,30.6622,-29.5936,993.511,90.0885
2.82,197.336,228.449,112.351,29.0322,-81.5006,-2595.35,90.0785
2.84,197.335,229.02,112.921,28.5358,-24.8211,2833.98,90.0688
2.86,197.334,229.565,113.466,27.2499,-64.293,-1973.6,90.0603
2.88,197.334,230.093,113.994,26.4069,-42.1489,1107.21,90.0524
2.9,197.333,230.602,114.503,25.4164,-49.5263,-368.873,90.0453
2.92,197.333,231.089,114.99,24.3758,-52.0312,-125.245,90.039
2.94,197.333,231.557,115.458,23.384,-49.5877,122.177,90.0334
2.96,197.332,232.008,115.909,22.5388,-42.2616,366.303,90.0282
2.98,197.332,232.431,116.332,21.1493,-69.4726,-1360.55,90.0239
3,197.332,232.853,116.754,21.1005,-2.4411,3351.58,90.0197
3.02,197.332,233.225,117.126,18.6135,-124.352,-6095.55,90.0166
3.04,197.332,233.598,117.499,18.6647,2.5589,6345.55,90.0136
3.06,197.332,233.952,117.853,17.6682,-49.8233,-2619.11,90.0109
3.08,197.332,234.266,118.167,15.7276,-97.0288,-2360.27,90.009
3.1,197.332,234.58,118.481,15.6776,-2.5,4726.44,90.0071
3.12,197.332,234.884,118.785,15.2288,-22.4411,-997.055,90.0053
3.14,197.332,235.125,119.026,12.0394,-159.47,-6851.44,90.0044
3.16,197.332,235.366,119.267,12.0382,-0.0589049,7970.55,90.0034
3.18,197.332,235.608,119.509,12.0894,2.5589,130.89,90.0025
3.2,197.332,235.848,119.749,12.0382,-2.5589,-255.89,90.0015
3.22,197.332,235.948,119.849,4.99882,-351.97,-17470.5,90.0014
3.24,197.332,236.048,119.949,4.99764,-0.0589049,17595.5,90.0012
3.26,197.332,236.148,120.049,4.99882,0.0589049,5.89049,90.0011
3.28,197.332,236.248,120.149,4.99882,-7.66054e-11,-2.94524,90.001
3.3,197.332,236.348,120.249,4.99764,-0.0589049,-2.94524,90.0008
3.32,197.332,236.448,120.349,4.99882,0.0589049,5.89049,90.0007
3.34,197.332,236.548,120.449,4.99882,-7.10543e-11,-2.94524,90.0006
3.36,197.332,236.648,120.549,4.99764,-0.0589049,-2.94524,90.0004
3.38,197.332,236.748,120.649,4.99882,0.0589049,5.89049,90.0003
