"time","x","y","position","velocity","acceleration","jerk","heading"
0,14.0318,37.1072,0,0,0,0,0
0.02,14.1655,37.1071,0.13373,6.68649,334.325,16716.2,0.00157115
0.04,14.2994,37.1071,0.26756,6.69149,0.249912,-16703.7,0.00314229
0.06,14.4332,37.1071,0.401389,6.69149,-5.88909e-06,-12.4959,0.00471344
0.08,14.5669,37.1072,0.535119,6.68649,-0.249907,-12.495,0.00628459
0.1,14.7007,37.1072,0.668949,6.69149,0.249912,24.991,0.00785573
0.12,14.8346,37.1072,0.802779,6.69149,-5.887e-06,-12.4959,0.00942688
0.14,14.9683,37.1072,0.936509,6.68649,-0.249982,-12.4988,0.010998
0.16,15.2051,37.1072,1.17331,11.8402,257.684,12896.7,0.0156528
0.18,15.5273,37.1073,1.49551,16.11,213.492,-2209.56,0.022867
0.2,15.8495,37.1074,1.81771,16.11,4.86093e-08,-10674.6,0.0300812
0.22,16.216,37.1076,2.18424,18.3263,110.815,5540.77,0.0405798
0.24,16.6348,37.108,2.60295,20.9357,130.471,982.774,0.0549481
0.26,17.0603,37.1084,3.0285,21.2773,17.0779,-5669.65,0.0704573
0.28,17.5546,37.1091,3.52283,24.7165,171.961,7744.15,0.0974931
0.3,18.0551,37.1101,4.02326,25.0215,15.2487,-7835.62,0.125382
0.32,18.6148,37.1113,4.58303,27.9883,148.341,6654.64,0.161606
0.34,19.1938,37.1131,5.16203,28.9502,48.0955,-5012.3,0.201493
0.36,19.8113,37.1156,5.77951,30.874,96.1896,2404.71,0.248707
0.38,20.4668,37.1187,6.43503,32.7758,95.0891,-55.0219,0.308089
0.4,21.1488,37.1227,7.11708,34.1026,66.3378,-1437.57,0.37498
0.42,21.8655,37.1278,7.83374,35.8331,86.5267,1009.44,0.450341
0.44,22.623,37.1343,8.59124,37.8752,102.104,778.858,0.537878
0.46,23.4096,37.1424,9.37795,39.3351,72.9954,-1455.42,0.639062
0.48,24.2277,37.1522,10.1961,40.9062,78.5552,277.991,0.75339
0.5,25.0783,37.1642,11.0467,42.5337,81.3768,141.081,0.87992
0.52,25.9616,37.1789,11.9302,44.1719,81.9083,26.5731,1.0212
0.54,26.8763,37.1964,12.8451,45.745,78.6548,-162.675,1.1828
0.56,27.8197,37.2173,13.7886,47.178,71.6505,-350.216,1.36055
0.58,28.7743,37.2414,14.7436,47.7479,28.4952,-2157.76,1.5518
0.6,29.7256,37.2689,15.6953,47.5842,-8.18332,-1833.92,1.75692
0.62,30.6735,37.2997,16.6437,47.4208,-8.17181,0.575421,1.97597
0.64,31.6187,37.3341,17.5895,47.2903,-6.52553,82.3141,2.20582
0.66,32.5611,37.3724,18.5327,47.1602,-6.5018,1.18643,2.44697
0.68,33.5001,37.4146,19.4727,46.9976,-8.1335,-81.5849,2.70186
0.7,34.4361,37.4609,20.4098,46.8552,-7.12004,50.6726,2.96889
0.72,35.3694,37.5114,21.3444,46.7338,-6.06674,52.6653,3.24598
0.74,36.3001,37.5665,22.2768,46.6182,-5.78447,14.1133,3.53282
0.76,37.2285,37.6262,23.207,46.512,-5.30732,23.8575,3.82913
0.78,38.154,37.6907,24.1349,46.3917,-6.01592,-35.4297,4.13549
0.8,39.0778,37.7599,25.0612,46.3158,-3.79364,111.114,4.44822
0.82,39.9999,37.8342,25.9863,46.2541,-3.08388,35.4879,4.76588
0.84,40.9208,37.9135,26.9107,46.2192,-1.74539,66.9243,5.08675
0.86,41.8411,37.9981,27.8348,46.2056,-0.682765,53.1315,5.40881
0.88,42.7612,38.0879,28.7592,46.2224,0.841522,76.2144,5.72957
0.9,43.6817,38.1828,29.6847,46.2739,2.57238,86.5429,6.04576
0.92,44.6039,38.283,30.6122,46.3766,5.13826,128.294,6.35353
0.94,45.528,38.3884,31.5423,46.5057,6.45379,65.7765,6.64988
0.96,46.4551,38.4988,32.4761,46.6862,9.02397,128.509,6.93126
0.98,47.3861,38.6142,33.4141,46.9037,10.879,92.75,7.19405
1,48.3218,38.7345,34.3575,47.1694,13.2811,120.105,7.43458
1.02,49.2629,38.8593,35.3069,47.4681,14.9368,82.7879,7.64937
1.04,50.2104,38.9882,36.2631,47.8122,17.205,113.407,7.83519
1.06,51.1649,39.121,37.2268,48.1826,18.5216,65.8295,7.9892
1.08,52.127,39.2572,38.1985,48.5861,20.172,82.5209,8.10912
1.1,53.0973,39.3963,39.1787,49.0092,21.1571,49.2541,8.1933
1.12,54.0759,39.5378,40.1675,49.4402,21.5507,19.6815,8.24078
1.14,55.0631,39.681,41.1651,49.879,21.9386,19.3978,8.25132
1.16,56.0588,39.8253,42.1711,50.3018,21.1399,-39.938,8.22543
1.18,57.0629,39.97,43.1856,50.7249,21.1554,0.777187,8.16398
1.2,58.0756,40.1144,44.2085,51.146,21.0568,-4.93195,8.06678
1.22,59.0957,40.2579,45.2387,51.5095,18.1718,-144.248,7.93844
1.24,60.1229,40.3999,46.2757,51.8473,16.8908,-64.0527,7.7817
1.26,61.1564,40.5395,47.3186,52.1459,14.9312,-97.9771,7.59957
1.28,62.1957,40.6764,48.3668,52.4117,13.2897,-82.0789,7.39513
1.3,63.2399,40.81,49.4195,52.6336,11.0928,-109.842,7.17152
1.32,64.2883,40.9397,50.476,52.823,9.47359,-80.9609,6.93176
1.34,65.3405,41.0654,51.5356,52.984,8.05013,-71.1728,6.67871
1.36,66.3957,41.1865,52.5977,53.1036,5.97622,-103.696,6.41493
1.38,67.4535,41.3029,53.662,53.2128,5.46031,-25.7958,6.14223
1.4,68.5133,41.4144,54.7275,53.2784,3.28104,-108.964,5.86389
1.42,69.5744,41.5207,55.7939,53.3207,2.11402,-58.3507,5.58237
1.44,70.6362,41.6218,56.8606,53.331,0.515268,-79.9378,5.29922
1.46,71.6987,41.7177,57.9274,53.3414,0.521314,0.302266,5.0158
1.48,72.7614,41.8084,58.9939,53.3264,-0.752464,-63.6889,4.73353
1.5,73.8238,41.8937,60.0598,53.2915,-1.74054,-49.404,4.45419
1.52,74.8857,41.9738,61.1247,53.2484,-2.15914,-20.9299,4.17817
1.54,75.9472,42.0488,62.1888,53.2065,-2.09117,3.3986,3.90594
1.56,77.008,42.1188,63.252,53.1564,-2.50679,-20.7812,3.6383
1.58,78.0674,42.1837,64.3134,53.0703,-4.30507,-89.9137,3.37755
1.6,79.126,42.2438,65.3736,53.0112,-2.95637,67.4351,3.12199
1.62,80.1834,42.299,66.4325,52.9456,-3.2765,-16.0066,2.8718
1.64,81.2396,42.3498,67.4899,52.8683,-3.86498,-29.4239,2.62855
1.66,82.2941,42.3959,68.5454,52.7767,-4.58443,-35.9726,2.39267
1.68,83.3475,42.4378,69.5997,52.7135,-3.15721,71.361,2.16229
1.7,84.3997,42.4755,70.6525,52.6426,-3.54407,-19.3431,1.93815
1.72,85.4499,42.509,71.7033,52.5371,-5.27557,-86.5751,1.72283
1.74,86.499,42.5386,72.7528,52.4742,-3.14414,106.572,1.5128
1.76,87.5468,42.5644,73.8009,52.4078,-3.3217,-8.87803,1.30843
1.78,88.5926,42.5865,74.8469,52.2983,-5.47527,-107.679,1.11344
1.8,89.6371,42.6049,75.8916,52.2363,-3.10189,118.669,0.923436
1.82,90.6805,42.6201,76.9351,52.1746,-3.08149,1.02031,0.738869
1.84,91.7217,42.6318,77.9764,52.0632,-5.57369,-124.61,0.563589
1.86,92.7619,42.6405,79.0166,52.0103,-2.64152,146.609,0.393093
1.88,93.8007,42.6461,80.0555,51.9438,-3.32536,-34.192,0.228158
1.9,94.8363,42.6488,81.0911,51.7805,-8.16593,-242.029,0.0770384
1.92,95.8597,42.6489,82.1144,51.1691,-30.5719,-1120.3,-0.0221951
1.94,96.8679,42.6481,83.1226,50.4061,-38.1476,-378.786,-0.0566659
1.96,97.8705,42.647,84.1252,50.1322,-13.6942,1222.67,-0.0678875
1.98,98.8673,42.6458,85.122,49.8397,-14.6251,-46.5443,-0.0542803
2,99.8594,42.6451,86.1141,49.6033,-11.8206,140.223,-0.0206078
2.02,100.846,42.6451,87.101,49.3446,-12.9359,-55.7619,0.0329022
2.04,101.829,42.6462,88.0837,49.1363,-10.4174,125.922,0.106222
2.06,102.807,42.6487,89.0614,48.8849,-12.5682,-107.538,0.20089
2.08,103.779,42.653,90.0336,48.6103,-13.7273,-57.9575,0.318889
2.1,104.747,42.6595,91.0013,48.3866,-11.1889,126.923,0.455937
2.12,105.71,42.6683,91.9646,48.1636,-11.1458,2.15531,0.611991
2.14,106.669,42.6799,92.9234,47.9412,-11.1247,1.05223,0.787062
2.16,107.623,42.6946,93.8776,47.7101,-11.5503,-21.2796,0.981934
2.18,108.571,42.7126,94.8263,47.4329,-13.861,-115.536,1.2006
2.2,109.515,42.7342,95.7706,47.2134,-10.9783,144.138,1.43825
2.22,110.454,42.7598,96.7094,46.9436,-13.4866,-125.415,1.69501
2.24,111.389,42.7896,97.6449,46.7739,-8.48713,249.972,1.97101
2.26,112.318,42.8239,98.5749,46.5008,-13.6551,-258.399,2.26668
2.28,113.242,42.8631,99.4999,46.2512,-12.4773,58.889,2.58444
2.3,114.161,42.9071,100.42,46.0036,-12.3806,4.83417,2.92429
2.32,115.076,42.9566,101.336,45.7843,-10.9671,70.6771,3.2841
2.34,115.984,43.0117,102.246,45.5144,-13.4956,-126.425,3.66414
2.36,116.888,43.0725,103.152,45.2941,-11.0119,124.187,4.06469
2.38,117.786,43.1396,104.052,45.023,-13.5589,-127.35,4.48622
2.4,118.678,43.213,104.947,44.7357,-14.3605,-40.0792,4.93039
2.42,119.564,43.2931,105.837,44.4834,-12.6168,87.1813,5.3989
2.44,120.445,43.3799,106.722,44.2655,-10.8953,86.0782,5.88918
2.46,121.319,43.4739,107.601,43.9494,-15.8029,-245.379,6.40163
2.48,122.187,43.5754,108.475,43.6855,-13.1962,130.33,6.93662
2.5,123.048,43.6843,109.343,43.4219,-13.1805,0.788416,7.49454
2.52,123.903,43.8011,110.206,43.1623,-12.9788,10.084,8.07582
2.54,124.751,43.9259,111.063,42.852,-15.5161,-126.865,8.68112
2.56,125.592,44.0591,111.915,42.571,-14.0509,73.2598,9.313
2.58,126.426,44.2005,112.76,42.2641,-15.3441,-64.6603,9.97011
2.6,127.252,44.3506,113.6,41.9724,-14.588,37.8046,10.652
2.62,128.069,44.5096,114.432,41.6389,-16.6749,-104.342,11.3591
2.64,128.879,44.6776,115.26,41.3628,-13.8049,143.499,12.0916
2.66,129.682,44.8548,116.082,41.094,-13.4374,18.3727,12.8499
2.68,130.475,45.0413,116.896,40.7455,-17.4277,-199.516,13.6335
2.7,131.251,45.2355,117.697,40.022,-36.1743,-937.329,14.4362
2.72,132.009,45.436,118.48,39.1677,-42.7151,-327.04,15.2517
2.74,132.746,45.6427,119.246,38.2806,-44.3516,-81.8251,16.0795
2.76,133.464,45.8552,119.995,37.4517,-41.4491,145.129,16.9195
2.78,134.163,46.0736,120.727,36.6314,-41.0109,21.9097,17.7717
2.8,134.844,46.2976,121.444,35.8265,-40.2472,38.1815,18.6357
2.82,135.509,46.5273,122.148,35.1795,-32.3498,394.872,19.5112
2.84,136.158,46.7627,122.838,34.5079,-33.5801,-61.5152,20.3973
2.86,136.791,47.0037,123.515,33.8521,-32.7895,39.5282,21.2933
2.88,137.409,47.2503,124.181,33.307,-27.2557,276.692,22.1988
2.9,138.014,47.5025,124.836,32.7329,-28.7025,-72.3415,23.1134
2.92,138.604,47.7602,125.48,32.2211,-25.5922,155.515,24.0367
2.94,139.182,48.0235,126.115,31.7699,-22.5581,151.706,24.9682
2.96,139.746,48.2917,126.74,31.2178,-27.6088,-252.536,25.909
2.98,140.298,48.5654,127.356,30.8006,-20.8567,337.605,26.8572
3,140.839,48.8443,127.964,30.4065,-19.7068,57.4987,27.8156
3.02,141.368,49.1293,128.565,30.0571,-17.4667,112.002,28.7782
3.04,141.888,49.4205,129.161,29.7909,-13.3136,207.658,29.7423
3.06,142.396,49.7167,129.749,29.4162,-18.7319,-270.915,30.7183
3.08,142.896,50.019,130.333,29.1961,-11.005,386.345,31.693
3.1,143.384,50.3269,130.911,28.8863,-15.4931,-224.406,32.6768
3.12,143.866,50.6411,131.486,28.7464,-6.99439,424.936,33.663
3.14,144.338,50.9618,132.057,28.5472,-9.95956,-148.258,34.651
3.16,144.803,51.2885,132.625,28.3916,-7.78069,108.944,35.6454
3.18,145.259,51.622,133.189,28.2461,-7.27368,25.3503,36.6387
3.2,145.708,51.9619,133.753,28.183,-3.15767,205.801,37.6362
3.22,146.15,52.3089,134.315,28.0961,-4.3453,-59.3815,38.6344
3.24,146.586,52.6632,134.877,28.0731,-1.14992,159.769,39.6328
3.26,147.015,53.0248,135.438,28.0543,-0.940214,10.4853,40.6318
3.28,147.437,53.3939,135.999,28.054,-0.011141,46.4537,41.6314
3.3,147.854,53.7712,136.561,28.1128,2.94033,147.574,42.6282
3.32,148.266,54.1567,137.125,28.1957,4.14126,60.0463,43.6249
3.34,148.671,54.5503,137.69,28.2589,3.16374,-48.876,44.6205
3.36,149.073,54.9532,138.259,28.4394,9.02482,293.054,45.61
3.38,149.469,55.3647,138.83,28.5541,5.73526,-164.478,46.6021
3.4,149.86,55.7866,139.405,28.7702,10.8032,253.398,47.5851
3.42,150.248,56.2176,139.985,28.9791,10.4456,-17.8792,48.567
3.44,150.63,56.6584,140.568,29.1603,9.05752,-69.4064,49.5458
3.46,151.009,57.1105,141.158,29.5087,17.4226,418.255,50.5145
3.48,151.383,57.5724,141.753,29.7152,10.3252,-354.873,51.486
3.5,151.754,58.0475,142.355,30.1414,21.3108,549.28,52.4427
3.52,152.121,58.5327,142.964,30.4213,13.9909,-365.992,53.3996
3.54,152.483,59.0296,143.578,30.7322,15.5469,77.8009,54.3513
3.56,152.842,59.5394,144.202,31.1809,22.436,344.454,55.2928
3.58,153.198,60.0617,144.834,31.61,21.4554,-49.0333,56.227
3.6,153.55,60.5978,145.476,32.0713,23.0617,80.3184,57.1529
3.62,153.899,61.1482,146.127,32.5674,24.807,87.2622,58.07
3.64,154.245,61.7126,146.789,33.1049,26.875,103.404,58.9788
3.66,154.586,62.2915,147.461,33.5968,24.5967,-113.915,59.8789
3.68,154.925,62.8852,148.145,34.1826,29.2867,234.496,60.7701
3.7,155.259,63.4943,148.839,34.7356,27.6527,-81.7004,61.652
3.72,155.59,64.1192,149.547,35.3517,30.8045,157.591,62.5243
3.74,155.917,64.7607,150.267,36.0146,33.1421,116.881,63.3865
3.76,156.241,65.4191,151,36.679,33.2249,4.13986,64.2378
3.78,156.561,66.0949,151.748,37.3925,35.6721,122.361,65.0787
3.8,156.878,66.7888,152.511,38.1383,37.2914,80.9635,65.9088
3.82,157.19,67.5012,153.289,38.8986,38.0155,36.2056,66.7279
3.84,157.498,68.2328,154.083,39.6891,39.5239,75.4169,67.5359
3.86,157.802,68.982,154.891,40.4197,36.5304,-149.673,68.3305
3.88,158.099,69.7435,155.708,40.8621,22.118,-720.622,69.1062
3.9,158.386,70.5138,156.531,41.1161,12.7008,-470.86,69.8597
3.92,158.666,71.2926,157.358,41.3719,12.7889,4.40392,70.5915
3.94,158.939,72.0796,158.191,41.6427,13.5416,37.6364,71.302
3.96,159.202,72.8745,159.029,41.8775,11.7382,-90.1681,71.9915
3.98,159.457,73.6771,159.871,42.1083,11.5427,-9.77589,72.6606
4,159.706,74.4872,160.718,42.3632,12.7419,59.9623,73.3096
4.02,159.946,75.3043,161.57,42.5844,11.0623,-83.9835,73.939
4.04,160.178,76.1289,162.426,42.8309,12.3263,63.2005,74.5468
4.06,160.404,76.9602,163.288,43.0722,12.0656,-13.0351,75.1358
4.08,160.621,77.7979,164.153,43.2676,9.76671,-114.944,75.7065
4.1,160.831,78.6417,165.023,43.4826,10.7526,49.2965,76.2594
4.12,161.035,79.4915,165.897,43.6924,10.4908,-13.0899,76.7949
4.14,161.232,80.3471,166.774,43.8933,10.0425,-22.4164,77.3133
4.16,161.422,81.2082,167.656,44.0972,10.1972,7.73538,77.8152
4.18,161.604,82.0745,168.542,44.2657,8.4217,-88.7761,78.3009
4.2,161.782,82.9466,169.432,44.4962,11.5243,155.129,78.7685
4.22,161.952,83.8238,170.325,44.6814,9.2618,-113.124,79.22
4.24,162.116,84.7057,171.222,44.8532,8.59261,-33.4594,79.6564
4.26,162.275,85.5924,172.123,45.0374,9.20676,30.7072,80.0781
4.28,162.428,86.4834,173.027,45.2008,8.1724,-51.7177,80.4854
4.3,162.575,87.3788,173.934,45.3694,8.42679,12.7192,80.8785
4.32,162.716,88.2785,174.845,45.5319,8.1292,-14.8793,81.2577
4.34,162.852,89.1829,175.76,45.7302,9.91024,89.0521,81.6204
4.36,162.982,90.0911,176.677,45.8743,7.20778,-135.123,81.9699
4.38,163.109,91.0031,177.598,46.0371,8.14167,46.6946,82.3064
4.4,163.23,91.9189,178.522,46.1874,7.51179,-31.4941,82.6301
4.42,163.346,92.8382,179.448,46.336,7.4335,-3.91447,82.9414
4.44,163.458,93.7612,180.378,46.4835,7.37268,-3.04114,83.24
4.46,163.565,94.6881,181.311,46.6557,8.60826,61.779,83.5236
4.48,163.669,95.6184,182.247,46.8031,7.37008,-61.909,83.7953
4.5,163.768,96.5519,183.186,46.9345,6.57347,-39.8302,84.0552
4.52,163.864,97.4885,184.127,47.0756,7.05127,23.8901,84.3035
4.54,163.955,98.4282,185.072,47.2099,6.71518,-16.8048,84.5404
4.56,164.043,99.3714,186.019,47.3613,7.57201,42.8415,84.7641
4.58,164.128,100.318,186.969,47.5126,7.56672,-0.264543,84.9751
4.6,164.21,101.268,187.922,47.6602,7.3765,-9.51064,85.175
4.62,164.289,102.219,188.877,47.7472,4.35108,-151.271,85.3639
4.64,164.365,103.174,189.835,47.9092,8.10221,187.556,85.5419
4.66,164.437,104.117,190.781,47.267,-32.1143,-2010.83,85.7054
4.68,164.504,105.03,191.696,45.7674,-74.9773,-2143.15,85.8507
4.7,164.567,105.909,192.578,44.0797,-84.386,-470.432,85.9811
4.72,164.625,106.757,193.427,42.4767,-80.1483,211.884,86.0979
4.74,164.681,107.571,194.244,40.8168,-82.9976,-142.466,86.2023
4.76,164.731,108.353,195.027,39.1884,-81.4203,78.868,86.2953
4.78,164.78,109.106,195.782,37.7078,-74.0298,369.523,86.3779
4.8,164.825,109.822,196.499,35.8951,-90.6346,-830.239,86.4481
4.82,164.866,110.499,197.178,33.9057,-99.4674,-441.642,86.5082
4.84,164.905,111.15,197.829,32.5753,-66.5221,1647.26,86.5621
4.86,164.943,111.766,198.446,30.8597,-85.7787,-962.829,86.6086
4.88,164.976,112.339,199.02,28.6972,-108.124,-1117.27,86.647
4.9,165.009,112.897,199.58,27.9762,-36.0504,3603.69,86.6828
4.92,165.037,113.39,200.073,24.687,-164.462,-6420.59,86.7087
4.94,165.065,113.883,200.567,24.6853,-0.083639,8218.93,86.7345
4.96,165.089,114.301,200.986,20.9468,-186.926,-9342.12,86.7504
4.98,165.112,114.719,201.404,20.8969,-2.49596,9221.5,86.7663
5,165.132,115.075,201.761,17.8459,-152.549,-7502.63,86.7775
5.02,165.15,115.396,202.082,16.0726,-88.6662,3194.12,86.7862
5.04,165.169,115.718,202.405,16.1265,2.69757,4568.19,86.7948
5.06,165.181,115.935,202.622,10.8576,-263.446,-13307.2,86.7998
5.08,165.188,116.068,202.756,6.6844,-208.66,2739.29,86.8019
5.1,165.196,116.202,202.89,6.68719,0.139707,10440,86.804
5.12,165.203,116.335,203.023,6.6844,-0.139707,-13.9707,86.8061
5.14,165.211,116.469,203.157,6.68719,0.139707,13.9707,86.8082
5.16,165.218,116.602,203.291,6.6844,-0.139708,-13.9707,86.8103
5.18,165.226,116.736,203.424,6.68837,0.198612,16.916,86.8123
