"time","x","y","position","velocity","acceleration","jerk","heading"
0,14.0318,37.1072,0,0,0,0,0
0.02,14.1656,37.1071,0.133759,6.68794,334.397,16719.9,0.00144801
0.04,14.2994,37.1071,0.267618,6.69294,0.249907,-16707.4,0.00289602
0.06,14.4333,37.1071,0.401476,6.69294,1.0953e-09,-12.4953,0.00434403
0.08,14.567,37.1072,0.535235,6.68794,-0.249907,-12.4953,0.00579204
0.1,14.7009,37.1072,0.669094,6.69294,0.249907,24.9907,0.00724005
0.12,14.8348,37.1072,0.802953,6.69294,2.72937e-09,-12.4953,0.00868806
0.14,14.9685,37.1072,0.936712,6.68794,-0.250018,-12.5009,0.0101361
0.16,15.2054,37.1072,1.1736,11.8444,257.823,12903.7,0.0144303
0.18,15.5277,37.1073,1.49593,16.1166,213.608,-2210.75,0.0210869
0.2,15.8501,37.1074,1.81826,16.1166,2.71475e-08,-10680.4,0.0277435
0.22,16.2168,37.1076,2.18498,18.3358,110.963,5548.17,0.0374333
0.24,16.6358,37.1079,2.60396,20.9487,130.645,984.074,0.0506971
0.26,17.0616,37.1083,3.02978,21.2913,17.1275,-5675.87,0.065018
0.28,17.5564,37.109,3.52459,24.7405,172.459,7766.57,0.0900203
0.3,18.0573,37.1098,4.02551,25.0461,15.2836,-7858.77,0.115815
0.32,18.6177,37.1111,4.58591,28.02,148.693,6670.46,0.14935
0.34,19.1974,37.1127,5.16561,28.9849,48.2473,-5022.27,0.186289
0.36,19.8157,37.1149,5.78391,30.9148,96.4909,2412.18,0.23004
0.38,20.4722,37.1178,6.44043,32.8261,95.5662,-46.2355,0.28515
0.4,21.1554,37.1216,7.1236,34.1586,66.6269,-1446.96,0.347275
0.42,21.8733,37.1263,7.84151,35.8956,86.8486,1011.08,0.417322
0.44,22.6322,37.1323,8.60045,37.9467,102.553,785.231,0.49877
0.46,23.4205,37.1398,9.38877,39.416,73.4671,-1454.3,0.59306
0.48,24.2403,37.149,10.2087,40.9959,78.9967,276.48,0.699735
0.5,25.093,37.1602,11.0614,42.6365,82.027,151.514,0.817921
0.52,25.9785,37.1738,11.947,44.2787,82.1123,4.26468,0.950058
0.54,26.8958,37.1902,12.8644,45.8727,79.701,-120.563,1.10156
0.56,27.8458,37.2098,13.8147,47.511,81.9141,110.656,1.26916
0.58,28.8281,37.2331,14.7973,49.1311,81.0032,-45.5474,1.45406
0.6,29.8416,37.2605,15.8111,50.6914,78.0155,-149.383,1.66059
0.62,30.8857,37.2928,16.8557,52.2315,77.0076,-50.3953,1.88974
0.64,31.9604,37.3305,17.9311,53.7693,76.889,-5.93185,2.13977
0.66,33.0647,37.3743,19.0363,55.2579,74.4301,-122.943,2.41378
0.68,34.1884,37.4245,20.1611,56.2406,49.1345,-1264.78,2.71162
0.7,35.313,37.4808,21.287,56.2973,2.83349,-2315.05,3.02592
0.72,36.4333,37.5432,22.4092,56.1057,-9.57817,-620.583,3.35631
0.74,37.55,37.612,23.5279,55.9389,-8.34339,61.7394,3.70091
0.76,38.6632,37.6874,24.6436,55.7851,-7.68968,32.685,4.05887
0.78,39.7736,37.7697,25.7571,55.6733,-5.58889,105.04,4.42606
0.8,40.8818,37.8591,26.8689,55.5911,-4.10818,74.0356,4.80024
0.82,41.9883,37.9558,27.9797,55.5382,-2.64702,73.0578,5.17876
0.84,43.0944,38.0597,29.0906,55.5474,0.460384,155.37,5.55695
0.86,44.201,38.1711,30.2028,55.6097,3.11507,132.734,5.92976
0.88,45.3093,38.2898,31.3174,55.7304,6.0341,145.952,6.29186
0.9,46.4206,38.4157,32.4359,55.9218,9.57253,176.921,6.63815
0.92,47.537,38.5489,33.5602,56.2157,14.6953,256.137,6.95918
0.94,48.6594,38.689,34.6913,56.555,16.9658,113.529,7.25175
0.96,49.789,38.8356,35.8303,56.9517,19.833,143.358,7.51039
0.98,50.9271,38.988,36.9786,57.4123,23.028,159.75,7.73013
1,52.0746,39.1459,38.137,57.9188,25.3256,114.881,7.90675
1.02,53.2343,39.3083,39.3079,58.548,31.4606,306.748,8.03003
1.04,54.405,39.4745,40.4904,59.122,28.7006,-137.999,8.10457
1.06,55.587,39.6433,41.6844,59.7001,28.9033,10.1341,8.12986
1.08,56.7804,39.8137,42.8899,60.2759,28.7928,-5.52457,8.10663
1.1,57.9853,39.9847,44.1068,60.8487,28.6408,-7.59965,8.0346
1.12,59.2023,40.1553,45.3357,61.4434,29.7324,54.5786,7.91217
1.14,60.4287,40.3242,46.5738,61.9027,22.9656,-338.338,7.75074
1.16,61.6637,40.4903,47.8199,62.3059,20.1596,-140.298,7.55465
1.18,62.9065,40.6528,49.0732,62.6661,18.0127,-107.346,7.32847
1.2,64.1558,40.8108,50.3325,62.9645,14.9176,-154.753,7.07673
1.22,65.4114,40.9637,51.5974,63.2446,14.0049,-45.6388,6.80134
1.24,66.6717,41.1108,52.8662,63.4395,9.7455,-212.969,6.50934
1.26,67.9358,41.2516,54.1381,63.5976,7.90471,-92.0394,6.20389
1.28,69.2028,41.3859,55.4123,63.7061,5.42493,-123.989,5.88967
1.3,70.4718,41.5133,56.6876,63.7673,3.06004,-118.244,5.56987
1.32,71.7423,41.6335,57.9637,63.8069,1.9821,-53.8972,5.24648
1.34,73.0137,41.7467,59.2402,63.8215,0.729072,-62.6514,4.92221
1.36,74.2854,41.8525,60.5163,63.8071,-0.721715,-72.5393,4.59919
1.38,75.5571,41.9513,61.7919,63.778,-1.45513,-36.6706,4.27851
1.4,76.8287,42.0429,63.0667,63.7409,-1.85306,-19.8968,3.96097
1.42,78.0991,42.1273,64.3399,63.662,-3.94753,-104.724,3.64989
1.44,79.3689,42.2049,65.6121,63.6107,-2.5633,69.2119,3.34355
1.46,80.6378,42.2757,66.883,63.5423,-3.41848,-42.7592,3.0427
1.48,81.9055,42.3398,68.1523,63.4644,-3.89452,-23.802,2.74876
1.5,83.172,42.3973,69.4201,63.3915,-3.64799,12.3267,2.4606
1.52,84.4374,42.4485,70.6865,63.3194,-3.60517,2.14098,2.1792
1.54,85.701,42.4935,71.9509,63.2227,-4.83517,-61.5,1.90548
1.56,86.9637,42.5326,73.2143,63.1662,-2.82267,100.625,1.63661
1.58,88.225,42.5657,74.476,63.0845,-4.0885,-63.2915,1.37485
1.6,89.485,42.593,75.7363,63.0163,-3.40762,34.0441,1.11874
1.62,90.7439,42.6149,76.9954,62.9531,-3.16261,12.2503,0.867993
1.64,92.0013,42.6312,78.2528,62.8747,-3.91561,-37.6499,0.623983
1.66,93.2579,42.6422,79.5095,62.8336,-2.05518,93.0212,0.383651
1.68,94.5133,42.6481,80.7649,62.7698,-3.19235,-56.858,0.148599
1.7,95.7534,42.649,82.005,62.0039,-38.2962,-1755.2,-0.0214932
1.72,96.9659,42.6479,83.2175,60.6258,-68.9033,-1530.35,-0.0746108
1.74,98.1721,42.6459,84.4237,60.3093,-15.8245,2653.94,-0.100859
1.76,99.3733,42.6436,85.625,60.0631,-12.3087,175.788,-0.106209
1.78,100.57,42.6414,86.8214,59.8199,-12.1614,7.36562,-0.0921872
1.8,101.76,42.6398,88.0118,59.5247,-14.7622,-130.04,-0.0518351
1.82,102.945,42.6393,89.1969,59.2511,-13.6762,54.3018,0.0117303
1.84,104.126,42.6403,90.3774,59.0262,-11.246,121.506,0.0943889
1.86,105.301,42.6432,91.5525,58.7543,-13.5954,-117.47,0.200142
1.88,106.471,42.6485,92.7223,58.4911,-13.1624,21.6507,0.328276
1.9,107.636,42.6565,93.8877,58.2718,-10.965,109.873,0.475095
1.92,108.796,42.6677,95.0476,57.991,-14.0393,-153.716,0.645864
1.94,109.95,42.6826,96.2017,57.7047,-14.3133,-13.7022,0.841119
1.96,111.099,42.7015,97.3513,57.4833,-11.0709,162.122,1.05543
1.98,112.244,42.7249,98.4964,57.2551,-11.4121,-17.0615,1.28949
2,113.382,42.753,99.6346,56.9091,-17.2974,-294.263,1.54916
2.02,114.515,42.7863,100.768,56.6863,-11.1408,307.832,1.83264
2.04,115.643,42.8252,101.896,56.4084,-13.8925,-137.585,2.13629
2.06,116.765,42.8702,103.019,56.1423,-13.3062,29.312,2.46359
2.08,117.881,42.9215,104.137,55.8644,-13.8971,-29.5458,2.81576
2.1,118.991,42.9796,105.248,55.5767,-14.382,-24.2422,3.18969
2.12,120.095,43.0449,106.354,55.3009,-13.791,29.5491,3.58897
2.14,121.192,43.1177,107.454,54.9726,-16.4145,-131.175,4.01414
2.16,122.283,43.1984,108.548,54.6956,-13.8523,128.108,4.46556
2.18,123.367,43.2874,109.636,54.4065,-14.4554,-30.1514,4.94046
2.2,124.445,43.3853,110.718,54.1178,-14.4335,1.09297,5.4394
2.22,125.515,43.4921,111.793,53.7473,-18.5231,-204.481,5.96987
2.24,126.577,43.6081,112.861,53.4161,-16.5624,98.0359,6.52918
2.26,127.632,43.7342,113.924,53.1283,-14.3897,108.638,7.11449
2.28,128.679,43.8703,114.98,52.7921,-16.8096,-120.995,7.72643
2.3,129.718,44.0172,116.029,52.4596,-16.6256,9.19931,8.36566
2.32,130.736,44.1729,117.059,51.4952,-48.2172,-1579.58,9.03519
2.34,131.727,44.3364,118.063,50.2124,-64.1408,-796.179,9.71981
2.36,132.689,44.5071,119.04,48.8593,-67.6584,-175.879,10.4174
2.38,133.625,44.6848,119.993,47.6148,-62.2231,271.763,11.1278
2.4,134.534,44.8694,120.92,46.3791,-61.785,21.9053,11.851
2.42,135.418,45.0609,121.825,45.2444,-56.7345,252.522,12.5875
2.44,136.278,45.259,122.708,44.1428,-55.0783,82.8108,13.3394
2.46,137.116,45.4634,123.57,43.1286,-50.7112,218.357,14.104
2.48,137.933,45.6744,124.414,42.1839,-47.2364,173.739,14.8804
2.5,138.728,45.8915,125.238,41.2025,-49.0703,-91.6943,15.6682
2.52,139.504,46.1149,126.046,40.3804,-41.1051,398.259,16.4672
2.54,140.262,46.3445,126.837,39.5726,-40.3891,35.7993,17.277
2.56,141,46.58,127.613,38.773,-39.9815,20.3796,18.0975
2.58,141.723,46.8217,128.374,38.0874,-34.2793,285.111,18.9282
2.6,142.428,47.0694,129.122,37.3681,-35.9665,-84.359,19.7688
2.62,143.118,47.3228,129.857,36.7398,-31.4113,227.759,20.6203
2.64,143.792,47.5823,130.579,36.144,-29.7913,81.0029,21.4811
2.66,144.452,47.8477,131.291,35.5682,-28.7918,49.9746,22.3504
2.68,145.098,48.1192,131.991,35.0115,-27.8345,47.8635,23.2275
2.7,145.732,48.3967,132.683,34.6078,-20.1859,382.429,24.1122
2.72,146.353,48.6804,133.366,34.1332,-23.728,-177.102,25.0038
2.74,146.962,48.9701,134.04,33.7166,-20.8276,145.017,25.902
2.76,147.559,49.2662,134.707,33.3236,-19.6536,58.6998,26.8063
2.78,148.145,49.5682,135.366,32.9716,-17.601,102.631,27.717
2.8,148.721,49.8765,136.019,32.6582,-15.6666,96.7208,28.6327
2.82,149.287,50.1915,136.668,32.4119,-12.3171,167.474,29.553
2.84,149.845,50.5132,137.311,32.1799,-11.5994,35.8827,30.4772
2.86,150.392,50.8418,137.95,31.9296,-12.5153,-45.7907,31.4048
2.88,150.932,51.1776,138.585,31.7839,-7.28341,261.592,32.3354
2.9,151.464,51.5205,139.218,31.6551,-6.4425,42.0458,33.2685
2.92,151.989,51.8707,139.849,31.5459,-5.459,49.1748,34.2036
2.94,152.507,52.2287,140.479,31.4635,-4.11873,67.0135,35.1401
2.96,153.018,52.5946,141.108,31.4458,-0.885838,161.645,36.0772
2.98,153.523,52.9688,141.736,31.4106,-1.75837,-43.6264,37.0144
3,154.022,53.3515,142.365,31.4362,1.27846,151.841,37.9512
3.02,154.515,53.7429,142.994,31.4809,2.23275,47.7146,38.8872
3.04,155.004,54.1434,143.626,31.5953,5.72176,174.45,39.8218
3.06,155.487,54.5536,144.26,31.7018,5.3254,-19.818,40.7539
3.08,155.967,54.9738,144.898,31.9068,10.2522,246.339,41.6831
3.1,156.443,55.4042,145.539,32.0592,7.6167,-131.773,42.609
3.12,156.914,55.8451,146.185,32.2697,10.5241,145.371,43.5311
3.14,157.382,56.297,146.836,32.5413,13.5811,152.847,44.4491
3.16,157.847,56.7603,147.492,32.8078,13.3262,-12.7422,45.3622
3.18,158.309,57.2354,148.154,33.1303,16.1248,139.929,46.2702
3.2,158.768,57.7231,148.824,33.4993,18.4488,116.199,47.1719
3.22,159.225,58.224,149.502,33.8975,19.9114,73.1314,48.067
3.24,159.679,58.7381,150.188,34.3055,20.3987,24.363,48.9553
3.26,160.132,59.2661,150.884,34.7793,23.6909,164.611,49.8365
3.28,160.583,59.8084,151.589,35.2485,23.458,-11.6449,50.7101
3.3,161.031,60.3655,152.304,35.7439,24.7726,65.7318,51.5758
3.32,161.478,60.9379,153.031,36.3336,29.4858,235.657,52.4331
3.34,161.924,61.5263,153.768,36.8952,28.0795,-70.3146,53.2817
3.36,162.368,62.1313,154.519,37.5197,31.2241,157.233,54.1211
3.38,162.811,62.7535,155.283,38.206,34.3165,154.616,54.9511
3.4,163.253,63.3935,156.061,38.8941,34.4051,4.43296,55.7713
3.42,163.694,64.0519,156.853,39.6167,36.1295,86.2185,56.5814
3.44,164.134,64.7297,157.661,40.4143,39.8815,187.603,57.3807
3.46,164.575,65.4277,158.487,41.2574,42.1542,113.63,58.1672
3.48,165.013,66.1463,159.329,42.0964,41.9483,-10.2948,58.9427
3.5,165.452,66.8861,160.189,43.0163,45.9941,202.293,59.707
3.52,165.891,67.6481,161.068,43.9605,47.2125,60.9185,60.4599
3.54,166.329,68.433,161.967,44.9359,48.7673,77.7396,61.2014
3.56,166.766,69.2415,162.886,45.9547,50.9409,108.683,61.9312
3.58,167.203,70.0744,163.827,47.0369,54.1094,158.425,62.6493
3.6,167.641,70.9326,164.79,48.1642,56.3645,112.753,63.3552
3.62,168.078,71.8174,165.777,49.3393,58.7563,119.59,64.0463
3.64,168.515,72.7298,166.789,50.6019,63.1305,218.712,64.7242
3.66,168.953,73.6701,167.826,51.8484,62.3247,-40.2915,65.3869
3.68,169.383,74.626,168.874,52.4263,28.896,-1671.43,66.0288
3.7,169.807,75.5918,169.929,52.7278,15.0717,-691.217,66.6467
3.72,170.222,76.5674,170.989,53.0137,14.2954,-38.8142,67.24
3.74,170.629,77.5528,172.055,53.3047,14.55,12.7313,67.8073
3.76,171.029,78.5474,173.127,53.606,15.065,25.7464,68.3499
3.78,171.423,79.5503,174.205,53.864,12.8996,-108.27,68.8715
3.8,171.807,80.5612,175.286,54.0856,11.082,-90.8804,69.3729
3.82,172.186,81.5802,176.373,54.3536,13.4027,116.035,69.852
3.84,172.558,82.6072,177.466,54.6162,13.1257,-13.8473,70.3096
3.86,172.924,83.6415,178.563,54.8543,11.9058,-60.9959,70.7465
3.88,173.283,84.6824,179.664,55.0502,9.79584,-105.498,71.1658
3.9,173.637,85.7301,180.77,55.29,11.989,109.659,71.5664
3.92,173.984,86.7845,181.88,55.5008,10.539,-72.5032,71.9479
3.94,174.325,87.8448,182.994,55.7008,10.0042,-26.7387,72.3125
3.96,174.662,88.9112,184.112,55.9079,10.3529,17.438,72.6598
3.98,174.994,89.9832,185.234,56.1107,10.1378,-10.7582,72.9908
4,175.32,91.061,186.36,56.3087,9.90462,-11.6577,73.3044
4.02,175.641,92.1436,187.489,56.4606,7.59183,-115.64,73.6039
4.04,175.958,93.2311,188.622,56.6402,8.97872,69.3442,73.8895
4.06,176.271,94.3239,189.759,56.8292,9.45395,23.7616,74.1581
4.08,176.58,95.4215,190.899,57.0123,9.15445,-14.975,74.4119
4.1,176.884,96.5233,192.042,57.1563,7.19838,-97.8037,74.6535
4.12,177.185,97.629,193.188,57.2964,7.0077,-9.53392,74.8825
4.14,177.483,98.7394,194.338,57.4861,9.48266,123.748,75.0963
4.16,177.778,99.8539,195.491,57.6409,7.74015,-87.1256,75.2971
4.18,178.069,100.972,196.646,57.7566,5.78468,-97.7735,75.4868
4.2,178.355,102.086,197.796,57.5321,-11.2242,-850.446,75.6623
4.22,178.633,103.178,198.923,56.3167,-60.7713,-2477.35,75.8219
4.24,178.9,104.238,200.016,54.6851,-81.5802,-1040.44,75.9672
4.26,179.155,105.268,201.077,53.0543,-81.5416,1.92885,76.099
4.28,179.401,106.265,202.104,51.3183,-86.795,-262.672,76.2145
4.3,179.637,107.231,203.098,49.7263,-79.6014,359.682,76.319
4.32,179.864,108.165,204.06,48.0765,-82.4935,-144.607,76.4133
4.34,180.081,109.067,204.987,46.3734,-85.1523,-132.937,76.4978
4.36,180.289,109.935,205.88,44.6454,-86.3994,-62.3545,76.5705
4.38,180.488,110.77,206.738,42.8739,-88.5739,-108.727,76.6351
4.4,180.677,111.57,207.561,41.151,-86.1489,121.252,76.6926
4.42,180.859,112.34,208.351,39.5218,-81.4577,234.556,76.7433
4.44,181.032,113.078,209.109,37.8995,-81.1179,16.9936,76.7876
4.46,181.198,113.784,209.835,36.2783,-81.0588,2.95408,76.8254
4.48,181.353,114.447,210.515,34.025,-112.665,-1580.31,76.8569
4.5,181.501,115.082,211.168,32.6323,-69.6336,2151.57,76.8851
4.52,181.642,115.689,211.79,31.1219,-75.5199,-294.314,76.9098
4.54,181.772,116.246,212.363,28.6295,-124.623,-2455.13,76.9288
4.56,181.898,116.789,212.92,27.8725,-37.8481,4338.73,76.9462
4.58,182.01,117.273,213.417,24.8544,-150.907,-5652.95,76.9583
4.6,182.121,117.751,213.907,24.4967,-17.8824,6651.24,76.9699
4.62,182.215,118.16,214.327,21.0011,-174.78,-7844.86,76.9776
4.64,182.31,118.57,214.748,21.0498,2.43593,8860.78,76.9853
4.66,182.389,118.91,215.097,17.4415,-180.417,-9142.65,76.9904
4.68,182.461,119.224,215.42,16.1203,-66.0603,5717.83,76.9944
4.7,182.534,119.539,215.743,16.169,2.43565,3424.8,76.9984
4.72,182.579,119.735,215.944,10.0338,-306.761,-15459.8,77.0002
4.74,182.609,119.866,216.078,6.71249,-166.064,7034.88,77.0008
4.76,182.639,119.996,216.211,6.66376,-2.43645,8181.37,77.0014
4.78,182.669,120.126,216.345,6.71249,2.43645,243.645,77.002
4.8,182.699,120.257,216.48,6.71249,-6.44538e-09,-121.822,77.0026
4.82,182.73,120.387,216.613,6.67518,-1.86541,-93.2705,77.0032
4.84,182.76,120.518,216.747,6.71249,1.86541,186.541,77.0038
