"time","x","y","position","velocity","acceleration","jerk","heading"
0,18.9474,292,0,0,90,0,0
0.02,19.0815,292,0.134164,1.8,90,0,0.000283115
0.04,19.2157,292,0.268328,3.6,90,0,0.000566231
0.06,19.3499,292,0.402492,5.4,90,0,0.000849346
0.08,19.484,292,0.536656,7.2,90,0,0.00113246
0.1,19.6182,292,0.67082,9,90,0,0.00141558
0.12,19.7524,292,0.804984,10.8,90,0,0.00169869
0.14,19.8865,292,0.939149,12.6,90,0,0.00198181
0.16,20.1244,292,1.17699,14.4,90,0,0.00314341
0.18,20.4483,292,1.50089,16.2,90,0,0.00503418
0.2,20.7722,292,1.82479,18,90,0,0.00692495
0.22,21.1412,292,2.19378,19.8,90,0,0.0097584
0.24,21.5633,292,2.6159,21.6,90,0,0.0137026
0.26,21.9925,292,3.04509,23.4,90,0,0.0178619
0.28,22.4932,292,3.5458,25.2,90,0,0.0241949
0.3,23.0002,292.001,4.05279,27,90,0,0.0307719
0.32,23.5685,292.001,4.62111,28.8,90,0,0.039732
0.34,24.1569,292.002,5.20954,30.6,90,0,0.049626
0.36,24.7855,292.002,5.83818,32.4,90,0,0.0613879
0.38,25.455,292.003,6.50763,34.2,90,0,0.0753257
0.4,26.1528,292.004,7.20545,36,90,0,0.0908635
0.42,26.8873,292.005,7.93989,37.8,90,0,0.108579
0.44,27.6653,292.007,8.71796,39.6,90,0,0.129129
0.46,28.4759,292.009,9.52856,41.4,90,0,0.151932
0.48,29.3209,292.011,10.3736,43.2,90,0,0.177214
0.5,30.2015,292.014,11.2541,45,90,0,0.205169
0.52,31.1182,292.018,12.1708,46.8,88.2917,0,0.235953
0.54,32.0711,292.022,13.1238,48.5748,70.0991,0,0.269677
0.56,33.0566,292.027,14.1093,50,0,0,0.30628
0.58,34.0566,292.032,15.1093,50,0,0,0.34507
0.6,35.0566,292.039,16.1093,50,0,0,0.38537
0.62,36.0565,292.046,17.1093,50,0,0,0.427035
0.64,37.0565,292.054,18.1093,50,0,0,0.469923
0.66,38.0565,292.062,19.1093,50,0,0,0.513939
0.68,39.0564,292.072,20.1093,50,0,0,0.558971
0.7,40.0564,292.082,21.1093,50,0,0,0.604277
0.72,41.0563,292.093,22.1093,50,0,0,0.650442
0.74,42.0562,292.105,23.1093,50,0,0,0.69671
0.76,43.0562,292.117,24.1093,50,0,0,0.743222
0.78,44.0561,292.13,25.1093,50,0,0,0.789573
0.8,45.056,292.145,26.1093,50,0,0,0.835569
0.82,46.0559,292.16,27.1093,50,0,0,0.880966
0.84,47.0557,292.175,28.1093,50,0,0,0.925496
0.86,48.0556,292.192,29.1093,50,0,0,0.968727
0.88,49.0555,292.209,30.1093,50,0,0,1.01075
0.9,50.0553,292.227,31.1093,50,0,0,1.05041
0.92,51.0551,292.246,32.1093,50,0,0,1.08879
0.94,52.0549,292.265,33.1093,50,0,0,1.12314
0.96,53.0547,292.285,34.1093,50,0,0,1.15579
0.98,54.0545,292.306,35.1093,50,0,0,1.18391
1,55.0543,292.326,36.1093,50,0,0,1.2087
1.02,56.0541,292.348,37.1093,50,0,0,1.22944
1.04,57.0538,292.369,38.1093,50,0,0,1.24419
1.06,58.0536,292.391,39.1093,50,0,0,1.25543
1.08,59.0534,292.413,40.1093,50,0,0,1.25844
1.1,60.0531,292.435,41.1093,50,0,0,1.25643
1.12,61.0529,292.457,42.1093,50,0,0,1.24809
1.14,62.0526,292.479,43.1093,50,0,0,1.23028
1.16,63.0524,292.5,44.1093,50,0,0,1.20686
1.18,64.0522,292.521,45.1093,50,0,0,1.17376
1.2,65.052,292.541,46.1093,50,0,0,1.13173
1.22,66.0518,292.56,47.1093,50,0,0,1.08277
1.24,67.0516,292.579,48.1093,50,0,0,1.02173
1.26,68.0515,292.596,49.1093,50,0,0,0.952242
1.28,69.0514,292.612,50.1093,50,0,0,0.875025
1.3,70.0513,292.627,51.1093,50,0,0,0.784896
1.32,71.0512,292.64,52.1093,50,0,0,0.686837
1.34,72.0511,292.651,53.1093,50,0,0,0.581085
1.36,73.0511,292.66,54.1093,50,0,0,0.463423
1.38,74.051,292.667,55.1093,50,0,0,0.33866
1.4,75.051,292.672,56.1093,50,0,0,0.207262
1.42,76.051,292.674,57.1093,50,0,0,0.0665182
1.44,77.051,292.674,58.1093,50,0,0,-0.0797921
1.46,78.051,292.671,59.1093,50,0,0,-0.230765
1.48,79.051,292.666,60.1093,50,0,0,-0.387562
1.5,80.051,292.658,61.1093,50,0,0,-0.547519
1.52,81.0509,292.647,62.1093,50,0,0,-0.709628
1.54,82.0508,292.633,63.1093,50,0,0,-0.873716
1.56,83.0507,292.616,64.1093,50,0,0,-1.03796
1.58,84.0505,292.597,65.1093,50,0,0,-1.2018
1.6,85.0502,292.574,66.1093,50,0,0,-1.36383
1.62,86.0499,292.549,67.1093,50,0,0,-1.52314
1.64,87.0495,292.521,68.1093,50,0,0,-1.67984
1.66,88.0491,292.491,69.1093,50,0,0,-1.83105
1.68,89.0485,292.457,70.1093,50,0,0,-1.97769
1.7,90.0479,292.422,71.1093,50,0,0,-2.12008
1.72,91.0471,292.383,72.1093,50,0,0,-2.25315
1.74,92.0463,292.343,73.1093,50,0,0,-2.38136
1.76,93.0454,292.3,74.1093,50,0,0,-2.50246
1.78,94.0444,292.256,75.1093,50,0,0,-2.61426
1.8,95.0433,292.209,76.1093,50,0,0,-2.72067
1.82,96.0422,292.161,77.1093,50,0,0,-2.81601
1.84,97.0409,292.111,78.1093,50,0,0,-2.90452
1.86,98.0396,292.059,79.1093,50,0,0,-2.98505
1.88,99.0382,292.007,80.1093,50,0,0,-3.05492
1.9,100.037,291.953,81.1093,50,0,0,-3.1196
1.92,101.035,291.898,82.1093,50,0,0,-3.17079
1.94,102.034,291.842,83.1093,50,0,0,-3.21684
1.96,103.032,291.785,84.1093,50,0,0,-3.25211
1.98,104.03,291.728,85.1093,50,0,0,-3.27961
2,105.029,291.671,86.1093,50,0,0,-3.29882
2.02,106.027,291.613,87.1093,50,0,0,-3.30801
2.04,107.025,291.555,88.1093,50,0,0,-3.31106
2.06,108.024,291.498,89.1093,50,0,0,-3.30221
2.08,109.022,291.44,90.1093,50,0,0,-3.28902
2.1,110.02,291.383,91.1093,50,0,0,-3.26243
2.12,111.019,291.326,92.1093,50,0,0,-3.2329
2.14,112.017,291.27,93.1093,50,0,0,-3.18872
2.16,113.016,291.215,94.1093,50,0,0,-3.14209
2.18,114.014,291.161,95.1093,50,0,0,-3.08125
2.2,115.013,291.107,96.1093,50,0,0,-3.01832
2.22,116.012,291.055,97.1093,50,0,0,-2.94338
2.24,117.01,291.005,98.1093,50,0,0,-2.85985
2.26,118.009,290.956,99.1093,50,0,0,-2.76765
2.28,119.008,290.908,100.109,50,0,0,-2.66666
2.3,120.007,290.863,101.109,50,0,0,-2.55661
2.32,121.006,290.819,102.109,50,0,0,-2.43728
2.34,122.005,290.778,103.109,50,0,0,-2.3086
2.36,123.004,290.738,104.109,50,0,0,-2.17035
2.38,124.004,290.702,105.109,50,0,0,-2.02226
2.4,125.003,290.668,106.109,50,0,0,-1.86405
2.42,126.003,290.637,107.109,50,0,0,-1.69537
2.44,127.002,290.609,108.109,50,0,0,-1.51584
2.46,128.002,290.584,109.109,50,0,0,-1.32503
2.48,129.002,290.562,110.109,50,0,0,-1.12247
2.5,130.001,290.545,111.109,50,0,0,-0.907605
2.52,131.001,290.531,112.109,50,0,0,-0.679837
2.54,132.001,290.521,113.109,50,0,0,-0.438488
2.56,133.001,290.515,114.109,50,0,0,-0.185623
2.58,134.001,290.514,115.109,50,0,0,0.0479457
2.6,135.001,290.517,116.109,50,0,0,0.201732
2.62,136.001,290.521,117.109,50,0,0,0.349993
2.64,137.001,290.529,118.109,50,0,0,0.493847
2.66,138.001,290.539,119.109,50,0,0,0.632571
2.68,139.001,290.551,120.109,50,0,0,0.764039
2.7,140.001,290.565,121.109,50,0,0,0.890704
2.72,141.001,290.582,122.109,50,0,0,1.01222
2.74,142.001,290.601,123.109,50,0,0,1.12627
2.76,143.001,290.621,124.109,50,0,0,1.23434
2.78,144,290.644,125.109,50,0,0,1.33709
2.8,145,290.668,126.109,50,0,0,1.43307
2.82,146,290.694,127.109,50,0,0,1.5215
2.84,146.999,290.721,128.109,50,0,0,1.60453
2.86,147.999,290.75,129.109,50,0,0,1.68161
2.88,148.998,290.78,130.109,50,0,0,1.7496
2.9,149.998,290.811,131.109,50,0,0,1.81202
2.92,150.997,290.843,132.109,50,0,0,1.86853
2.94,151.997,290.876,133.109,50,0,0,1.91665
2.96,152.996,290.91,134.109,50,0,0,1.95788
2.98,153.996,290.945,135.109,50,0,0,1.99322
3,154.995,290.98,136.109,50,0,0,2.02107
3.02,155.994,291.015,137.109,50,0,0,2.04064
3.04,156.994,291.051,138.109,50,0,0,2.05436
3.06,157.993,291.087,139.109,50,0,0,2.06151
3.08,158.993,291.123,140.109,50,0,0,2.05902
3.1,159.992,291.159,141.109,50,0,0,2.0506
3.12,160.991,291.194,142.109,50,0,0,2.03585
3.14,161.991,291.23,143.109,50,0,0,2.01178
3.16,162.99,291.265,144.109,50,0,0,1.98076
3.18,163.989,291.299,145.109,50,0,0,1.94343
3.2,164.989,291.332,146.109,50,0,0,1.89763
3.22,165.988,291.365,147.109,50,0,0,1.84352
3.24,166.988,291.397,148.109,50,0,0,1.78308
3.26,167.987,291.427,149.109,50,0,0,1.71506
3.28,168.987,291.457,150.109,50,0,0,1.63726
3.3,169.987,291.485,151.109,50,0,0,1.55306
3.32,170.986,291.511,152.109,50,0,0,1.46191
3.34,171.986,291.536,153.109,50,0,0,1.36004
3.36,172.986,291.558,154.109,50,0,0,1.25116
3.38,173.985,291.579,155.109,50,0,0,1.13523
3.4,174.985,291.598,156.109,50,0,0,1.00943
3.42,175.985,291.614,157.109,50,0,0,0.874893
3.44,176.985,291.629,158.109,50,0,0,0.73315
3.46,177.985,291.64,159.109,50,0,0,0.582473
3.48,178.985,291.649,160.109,50,0,0,0.421056
3.5,179.985,291.655,161.109,50,0,0,0.252182
3.52,180.985,291.658,162.109,50,0,0,0.0751826
3.54,181.985,291.657,163.109,50,0,0,-0.114257
3.56,182.985,291.654,164.109,50,0,0,-0.312033
3.58,183.985,291.647,165.109,50,0,0,-0.518245
3.6,184.985,291.636,166.109,50,0,0,-0.735766
3.62,185.985,291.621,167.109,50,0,0,-0.964378
3.64,186.984,291.602,168.109,50,0,0,-1.2018
3.66,187.984,291.579,169.109,50,0,0,-1.44912
3.68,188.984,291.551,170.109,50,0,0,-1.71089
3.7,189.983,291.519,171.109,50,0,0,-1.98226
3.72,190.983,291.482,172.109,50,0,0,-2.26381
3.74,191.982,291.44,173.109,50,0,0,-2.55871
3.76,192.981,291.393,174.109,50,0,0,-2.867
3.78,193.979,291.34,175.109,50,0,0,-3.18616
3.8,194.978,291.282,176.109,50,0,0,-3.5171
3.82,195.975,291.218,177.109,50,0,0,-3.8649
3.84,196.973,291.147,178.109,50,0,0,-4.22569
3.86,197.97,291.07,179.109,50,0,0,-4.599
3.88,198.967,290.987,180.109,50,0,0,-4.9863
3.9,199.962,290.896,181.109,50,0,0,-5.393
3.92,200.958,290.799,182.109,50,0,0,-5.81373
3.94,201.952,290.694,183.109,50,0,0,-6.24903
3.96,202.946,290.581,184.109,50,0,0,-6.70068
3.98,203.938,290.46,185.109,50,0,0,-7.17409
4,204.93,290.331,186.109,50,0,0,-7.66393
4.02,205.921,290.194,187.109,50,0,0,-8.17077
4.04,206.91,290.047,188.109,50,0,0,-8.69597
4.06,207.898,289.891,189.109,50,0,0,-9.2457
4.08,208.884,289.726,190.109,50,0,0,-9.81568
4.1,209.868,289.55,191.109,50,0,0,-10.4057
4.12,210.851,289.365,192.109,50,0,0,-11.0168
4.14,211.831,289.168,193.109,50,0,0,-11.6521
4.16,212.81,288.961,194.109,50,0,0,-12.3151
4.18,213.785,288.742,195.109,50,0,0,-13.0018
4.2,214.758,288.511,196.109,50,0,0,-13.713
4.22,215.728,288.268,197.109,50,0,0,-14.4496
4.24,216.695,288.012,198.109,50,0,0,-15.2142
4.26,217.658,287.743,199.109,50,0,0,-16.0123
4.28,218.617,287.46,200.109,50,0,0,-16.8388
4.3,219.572,287.163,201.109,50,-4.18098,0,-17.6947
4.32,220.522,286.853,202.108,49.9164,-38.6182,0,-18.5802
4.34,221.458,286.53,203.099,49.1445,-41.3566,0,-19.4889
4.36,222.375,286.197,204.074,48.3165,-39.4795,0,-20.4141
4.38,223.27,285.855,205.033,47.5259,-38.2185,0,-21.36
4.4,224.146,285.505,205.976,46.7602,-36.3127,0,-22.3212
4.42,225,285.145,206.903,46.0339,-34.4601,0,-23.2975
4.44,225.836,284.777,207.816,45.3444,-32.6543,0,-24.2881
4.46,226.653,284.4,208.716,44.6906,-30.8907,0,-25.2928
4.48,227.452,284.014,209.603,44.0715,-29.165,0,-26.3113
4.5,228.233,283.619,210.479,43.4861,-27.453,0,-27.3432
4.52,228.998,283.215,211.343,42.934,-25.7262,0,-28.3881
4.54,229.745,282.802,212.197,42.415,-24.0542,0,-29.4461
4.56,230.476,282.38,213.041,41.9289,-22.6282,0,-30.5178
4.58,231.191,281.95,213.875,41.4748,-21.0583,0,-31.6042
4.6,231.889,281.512,214.7,41.0527,-19.4857,0,-32.7021
4.62,232.572,281.064,215.517,40.6605,-17.9254,0,-33.81
4.64,233.24,280.607,216.326,40.2978,-16.3794,0,-34.9274
4.66,233.894,280.14,217.129,39.9639,-14.8458,0,-36.0538
4.68,234.534,279.665,217.926,39.6621,-13.3241,0,-37.1894
4.7,235.158,279.182,218.716,39.3949,-11.8127,0,-38.3343
4.72,235.769,278.688,219.501,39.1557,-10.3078,0,-39.4858
4.74,236.367,278.186,220.282,38.9443,-8.80806,0,-40.6434
4.76,236.952,277.673,221.06,38.7602,-7.31224,0,-41.8065
4.78,237.523,277.152,221.834,38.6117,-5.81915,0,-42.9756
4.8,238.082,276.621,222.604,38.4934,-4.32618,0,-44.1487
4.82,238.628,276.08,223.373,38.4023,-2.83189,0,-45.3248
4.84,239.162,275.528,224.141,38.3383,-1.3358,0,-46.5031
4.86,239.684,274.967,224.907,38.3061,0.161969,0,-47.6833
4.88,240.194,274.395,225.674,38.3082,1.65732,0,-48.8641
4.9,240.692,273.813,226.44,38.3374,3.16795,0,-50.0445
4.92,241.179,273.219,227.207,38.394,4.69191,0,-51.2236
4.94,241.654,272.615,227.976,38.4796,6.22053,0,-52.4006
4.96,242.118,271.999,228.747,38.6038,7.77294,0,-53.5733
4.98,242.571,271.372,229.521,38.7562,9.34164,0,-54.742
5,243.013,270.733,230.298,38.9374,10.9286,0,-55.906
5.02,243.444,270.083,231.078,39.1478,12.536,0,-57.0647
5.04,243.865,269.419,231.864,39.3952,14.1734,0,-58.2156
5.06,244.275,268.742,232.655,39.6772,15.8433,0,-59.3584
5.08,244.674,268.053,233.452,39.9902,17.5459,0,-60.4933
5.1,245.062,267.35,234.255,40.3352,19.2854,0,-61.6196
5.12,245.44,266.634,235.065,40.7132,21.0664,0,-62.7368
5.14,245.808,265.902,235.883,41.1316,22.9047,0,-63.8421
5.16,246.166,265.156,236.711,41.5886,24.7711,0,-64.9356
5.18,246.513,264.394,237.548,42.0813,26.4779,0,-66.0179
5.2,246.85,263.617,238.395,42.6076,28.3796,0,-67.0873
5.22,247.176,262.825,239.252,43.1698,30.6134,0,-68.1421
5.24,247.492,262.015,240.121,43.7761,32.8638,0,-69.181
5.26,247.798,261.189,241.002,44.4272,35.1567,0,-70.2056
5.28,248.094,260.343,241.899,45.1302,37.5924,0,-71.2136
5.3,248.379,259.478,242.809,45.8814,40.1743,0,-72.2066
5.32,248.655,258.594,243.735,46.6838,42.8682,0,-73.1844
5.34,248.92,257.69,244.678,47.54,44.7003,0,-74.1466
5.36,249.174,256.764,245.637,48.4335,47.7054,0,-75.0912
5.38,249.418,255.817,246.616,49.3866,25.9512,0,-76.0141
5.4,249.65,254.851,247.609,49.9099,4.49465,0,-76.9131
5.42,249.869,253.877,248.608,50,0,0,-77.7823
5.44,250.073,252.898,249.608,50,0,0,-78.6176
5.46,250.263,251.916,250.608,50,0,0,-79.4193
5.48,250.44,250.932,251.608,50,0,0,-80.1826
5.5,250.604,249.945,252.608,50,0,0,-80.9093
5.52,250.756,248.957,253.608,50,0,0,-81.6043
5.54,250.896,247.967,254.608,50,0,0,-82.2692
5.56,251.025,246.975,255.608,50,0,0,-82.9036
5.58,251.143,245.982,256.608,50,0,0,-83.5031
5.6,251.251,244.988,257.608,50,0,0,-84.0713
5.62,251.35,243.993,258.608,50,0,0,-84.6129
5.64,251.439,242.997,259.608,50,0,0,-85.1287
5.66,251.519,242,260.608,50,0,0,-85.6121
5.68,251.592,241.003,261.608,50,0,0,-86.0662
5.7,251.656,240.005,262.608,50,0,0,-86.4966
5.72,251.714,239.006,263.608,50,0,0,-86.903
5.74,251.764,238.008,264.608,50,-48.614,0,-87.2794
5.76,251.808,237.019,265.598,49.0277,-85.9779,0,-87.626
5.78,251.845,236.056,266.561,47.3095,-90,0,-87.9427
5.8,251.876,235.129,267.488,45.5095,-90,0,-88.2265
5.82,251.902,234.238,268.38,43.7095,-90,0,-88.4774
5.84,251.923,233.381,269.237,41.9095,-90,0,-88.6997
5.86,251.94,232.558,270.061,40.1095,-90,0,-88.8998
5.88,251.954,231.776,270.843,38.3095,-90,0,-89.0752
5.9,251.965,231.032,271.587,36.5095,-90,0,-89.2233
5.92,251.973,230.32,272.299,34.7095,-90,0,-89.3537
5.94,251.98,229.636,272.982,32.9095,-90,0,-89.4702
5.96,251.985,229.006,273.613,31.1095,-90,0,-89.5653
5.98,251.99,228.401,274.218,29.3095,-90,0,-89.6507
6,251.993,227.832,274.786,27.5095,-90,0,-89.7215
6.02,251.995,227.306,275.312,25.7095,-90,0,-89.778
6.04,251.996,226.806,275.813,23.9095,-90,0,-89.826
6.06,251.998,226.354,276.265,22.1095,-90,0,-89.8638
6.08,251.998,225.932,276.687,20.3095,-90,0,-89.8956
6.1,251.999,225.535,277.084,18.5095,-90,0,-89.9237
6.12,251.999,225.211,277.407,16.7095,-90,0,-89.9414
6.14,252,224.887,277.731,14.9095,-90,0,-89.9591
6.16,252,224.596,278.023,13.1095,-90,0,-89.9742
6.18,252,224.462,278.157,11.3095,-90,0,-89.9767
6.2,252,224.328,278.291,9.50949,-90,0,-89.9792
6.22,252,224.193,278.425,7.70949,-90,0,-89.9816
6.24,252,224.059,278.56,5.90949,-90,0,-89.9841
6.26,252,223.925,278.694,4.10949,-90,0,-89.9866
6.28,252,223.791,278.828,2.30949,-90,0,-89.9891
6.3,252,223.657,278.962,0.509493,-90,0,-89.9916
