"time","x","y","position","velocity","acceleration","jerk","heading"
0,18.9474,305,0,0,0,0,0
0.02,19.0815,305,0.134055,6.70275,335.137,16756.9,0.000198392
0.04,19.2156,305,0.26821,6.70775,0.249999,-16744.4,0.000396785
0.06,19.3498,305,0.402365,6.70775,5.67253e-07,-12.4999,0.000595177
0.08,19.4838,305,0.53642,6.70275,-0.25,-12.5,0.000793569
0.1,19.618,305,0.670575,6.70775,0.249999,25,0.000991962
0.12,19.7521,305,0.80473,6.70775,2.83617e-06,-12.4998,0.00119035
0.14,19.8862,305,0.938785,6.70275,-0.250007,-12.5005,0.00138875
0.16,20.1239,305,1.1765,11.8858,259.151,12970.1,0.00220166
0.18,20.4475,305,1.5001,16.18,214.711,-2222.04,0.00352465
0.2,20.7711,305,1.8237,16.18,1.0747e-09,-10735.5,0.00484764
0.22,21.1397,305,2.19225,18.4275,112.377,5618.85,0.00682818
0.24,21.5611,305,2.61373,21.0737,132.311,996.675,0.00958349
0.26,21.9897,305,3.04227,21.427,17.6651,-5732.27,0.0124884
0.28,22.4894,305,3.54196,24.9849,177.893,8011.37,0.0169048
0.3,22.9953,305.001,4.04792,25.298,15.6565,-8111.8,0.0214903
0.32,23.5622,305.001,4.61481,28.3442,152.311,6832.7,0.0277275
0.34,24.149,305.001,5.20165,29.3419,49.8842,-5121.32,0.0346095
0.36,24.7758,305.001,5.82839,31.3373,99.7684,2494.21,0.0427813
0.38,25.4431,305.002,6.4957,33.3654,101.403,81.7367,0.0524494
0.4,26.1385,305.003,7.19106,34.7679,70.1272,-1563.8,0.0632153
0.42,26.8702,305.004,7.92278,36.586,90.9043,1038.85,0.075472
0.44,27.645,305.005,8.69756,38.7391,107.654,837.506,0.08966
0.46,28.452,305.006,9.5046,40.3517,80.6338,-1351.03,0.105375
0.48,29.293,305.008,10.3457,42.0528,85.0548,221.053,0.122764
0.5,30.1693,305.01,11.2219,43.8125,87.981,146.309,0.141949
0.52,31.0812,305.012,12.1338,45.596,89.1788,59.8916,0.163022
0.54,32.0289,305.015,13.0815,47.3841,89.4019,11.1553,0.186042
0.56,33.0087,305.019,14.0614,48.9928,80.437,-448.248,0.210951
0.58,34.0028,305.022,15.0554,49.7018,35.4497,-2249.37,0.237255
0.6,34.9966,305.027,16.0492,49.6917,-0.504126,-1797.69,0.264483
0.62,35.9902,305.032,17.0429,49.6826,-0.458326,2.28997,0.292519
0.64,36.9837,305.037,18.0364,49.6747,-0.394225,3.20505,0.32125
0.66,37.9771,305.043,19.0297,49.6682,-0.325456,3.43848,0.350579
0.68,38.9702,305.049,20.0229,49.6576,-0.529073,-10.1808,0.3804
0.7,39.9634,305.056,21.0161,49.6619,0.214626,37.1849,0.410312
0.72,40.9566,305.064,22.0093,49.6591,-0.141207,-17.7917,0.440506
0.74,41.9497,305.072,23.0025,49.6597,0.0340311,8.76191,0.47064
0.76,42.9428,305.08,23.9956,49.6567,-0.151292,-9.26614,0.5006
0.78,43.9361,305.088,24.9889,49.6655,0.437438,29.4365,0.530267
0.8,44.9294,305.098,25.9823,49.6678,0.116372,-16.0533,0.55933
0.82,45.923,305.108,26.9759,49.6804,0.630598,25.7113,0.587722
0.84,46.9166,305.118,27.9696,49.6862,0.288885,-17.0857,0.615164
0.86,47.9107,305.129,28.9638,49.706,0.991514,35.1314,0.641345
0.88,48.9049,305.14,29.958,49.7141,0.403468,-29.4023,0.666374
0.9,49.8996,305.152,30.9528,49.7389,1.23979,41.8161,0.689268
0.92,50.8947,305.165,31.948,49.7574,0.923907,-15.7942,0.711029
0.94,51.8904,305.177,32.9438,49.7911,1.68933,38.2713,0.729316
0.96,52.8865,305.19,33.9399,49.808,0.845227,-42.2053,0.746168
0.98,53.8834,305.203,34.937,49.851,2.14584,65.0306,0.759237
1,54.881,305.217,35.9346,49.8826,1.58059,-28.2623,0.769579
1.02,55.8793,305.23,36.933,49.9194,1.84265,13.103,0.776613
1.04,56.8787,305.244,37.9325,49.9749,2.77121,46.428,0.778821
1.06,57.8787,305.257,38.9326,50.0059,1.5545,-60.8356,0.778229
1.08,58.8803,305.271,39.9343,50.0855,3.97811,121.18,0.771124
1.1,59.8827,305.284,40.9368,50.1246,1.95287,-101.262,0.760076
1.12,60.8863,305.297,41.9404,50.1805,2.79532,42.1225,0.7441
1.14,61.8915,305.31,42.9457,50.2637,4.16292,68.3798,0.720785
1.16,62.8976,305.323,43.952,50.3126,2.44136,-86.0776,0.693166
1.18,63.9055,305.334,44.9599,50.3951,4.1273,84.2969,0.658165
1.2,64.915,305.346,45.9694,50.4777,4.1291,0.0899333,0.616376
1.22,65.9255,305.356,46.98,50.5307,2.65144,-73.8832,0.569375
1.24,66.9382,305.365,47.9928,50.6377,5.34721,134.789,0.513346
1.26,67.9524,305.375,49.007,50.7089,3.56221,-89.2497,0.451037
1.28,68.9677,305.382,50.0223,50.7678,2.9455,-30.8356,0.383024
1.3,69.9853,305.388,51.0399,50.8793,5.5765,131.55,0.305592
1.32,71.0041,305.393,52.0588,50.9444,3.25293,-116.178,0.222401
1.34,72.0243,305.396,53.0789,51.0067,3.11736,-6.77861,0.133679
1.36,73.0463,305.398,54.101,51.1023,4.77891,83.0774,0.036521
1.38,74.0695,305.397,55.1241,51.1588,2.82276,-97.8077,-0.06562
1.4,75.0937,305.395,56.1484,51.2109,2.60736,-10.7699,-0.172351
1.42,76.1194,305.391,57.174,51.283,3.60388,49.8258,-0.285409
1.44,77.1458,305.385,58.2005,51.3251,2.10731,-74.8284,-0.402138
1.46,78.1729,305.376,59.2276,51.3548,1.48387,-31.1721,-0.521862
1.48,79.2009,305.366,60.2556,51.4012,2.31944,41.7787,-0.645155
1.5,80.2291,305.354,61.284,51.417,0.787457,-76.5991,-0.77018
1.52,81.2576,305.338,62.3126,51.4309,0.696274,-4.55915,-0.896254
1.54,82.2863,305.322,63.3414,51.4388,0.397227,-14.9523,-1.02296
1.56,83.3147,305.302,64.37,51.4298,-0.45109,-42.4159,-1.14908
1.58,84.3428,305.28,65.3983,51.418,-0.589708,-6.93088,-1.27433
1.6,85.3705,305.256,66.4263,51.399,-0.953046,-18.1669,-1.39736
1.62,86.3975,305.23,67.4536,51.3656,-1.66713,-35.7044,-1.51768
1.64,87.4238,305.202,68.4804,51.3362,-1.46924,9.89451,-1.6355
1.66,88.4489,305.172,69.5059,51.2763,-2.99779,-76.4272,-1.74835
1.68,89.4731,305.139,70.5306,51.2358,-2.02315,48.7318,-1.85723
1.7,90.4965,305.105,71.5545,51.1959,-1.99481,1.41688,-1.96245
1.72,91.518,305.07,72.5766,51.105,-4.54397,-127.458,-2.0598
1.74,92.5384,305.032,73.5978,51.0583,-2.33877,110.26,-2.15315
1.76,93.5576,304.992,74.6177,50.9958,-3.12265,-39.1941,-2.24066
1.78,94.5749,304.952,75.6358,50.9046,-4.56078,-71.9064,-2.32057
1.8,95.5911,304.91,76.6529,50.8562,-2.41917,107.08,-2.39612
1.82,96.6053,304.867,77.668,50.7559,-5.01432,-129.757,-2.46283
1.84,97.6183,304.822,78.682,50.6979,-2.89911,105.76,-2.52405
1.86,98.6298,304.778,79.6944,50.6215,-3.82332,-46.2105,-2.57897
1.88,99.6392,304.731,80.7049,50.5247,-4.84054,-50.861,-2.6254
1.9,100.648,304.685,81.7149,50.4984,-1.31536,176.259,-2.66775
1.92,101.654,304.638,82.7222,50.366,-6.61726,-265.095,-2.69955
1.94,102.659,304.59,83.7276,50.2699,-4.80587,90.5697,-2.72728
1.96,103.662,304.542,84.7321,50.2275,-2.12042,134.273,-2.74666
1.98,104.664,304.494,85.7353,50.1581,-3.47146,-67.5521,-2.75992
2,105.665,304.446,86.737,50.0857,-3.61894,-7.37404,-2.7668
2.02,106.663,304.397,87.737,49.999,-4.33154,-35.6301,-2.76583
2.04,107.661,304.349,88.7359,49.9436,-2.7702,78.067,-2.76019
2.06,108.656,304.301,89.7316,49.7884,-7.76103,-249.541,-2.74527
2.08,109.651,304.253,90.7277,49.8014,0.64794,420.448,-2.72709
2.1,110.643,304.207,91.7213,49.6803,-6.05198,-334.996,-2.69845
2.12,111.635,304.16,92.7144,49.6548,-1.27627,238.785,-2.66756
2.14,112.624,304.114,93.7049,49.5258,-6.45222,-258.797,-2.6255
2.16,113.614,304.069,94.695,49.5031,-1.13446,265.888,-2.58144
2.18,114.6,304.025,95.6825,49.3761,-6.3511,-260.832,-2.52658
2.2,115.586,303.982,96.6696,49.3565,-0.975641,268.773,-2.47
2.22,116.57,303.941,97.6546,49.2481,-5.4222,-222.328,-2.40424
2.24,117.553,303.899,98.638,49.1732,-3.74373,83.9238,-2.33188
2.26,118.535,303.86,99.6209,49.1435,-1.48481,112.946,-2.25286
2.28,119.515,303.823,100.601,49.0131,-6.52185,-251.852,-2.16709
2.3,120.493,303.786,101.58,48.9332,-3.99634,126.276,-2.07444
2.32,121.469,303.751,102.557,48.8497,-4.17534,-8.94977,-1.97459
2.34,122.445,303.719,103.533,48.8128,-1.84429,116.552,-1.86754
2.36,123.418,303.688,104.507,48.6777,-6.75476,-245.523,-1.75313
2.38,124.39,303.66,105.479,48.6372,-2.02386,236.545,-1.63115
2.4,125.361,303.633,106.45,48.5474,-4.48995,-123.304,-1.50138
2.42,126.328,303.608,107.418,48.4019,-7.27547,-139.276,-1.36354
2.44,127.295,303.587,108.385,48.3536,-2.41335,243.106,-1.21735
2.46,128.26,303.568,109.35,48.2528,-5.0399,-131.327,-1.06246
2.48,129.223,303.551,110.313,48.1471,-5.28862,-12.4359,-0.898491
2.5,130.183,303.537,111.274,48.0377,-5.46582,-8.85983,-0.725027
2.52,131.142,303.526,112.233,47.922,-5.78759,-16.0886,-0.541589
2.54,132.097,303.519,113.188,47.7514,-8.53106,-137.174,-0.347644
2.56,133.051,303.515,114.142,47.7035,-2.39516,306.795,-0.145175
2.58,134.009,303.514,115.1,47.9156,10.6063,650.075,0.0385625
2.6,134.983,303.516,116.073,48.6724,37.8381,1361.59,0.1556
2.62,135.957,303.52,117.048,48.7381,3.28708,-1727.55,0.266869
2.64,136.933,303.525,118.024,48.7889,2.54225,-37.2415,0.373676
2.66,137.91,303.533,119.001,48.8529,3.19745,32.7603,0.474932
2.68,138.889,303.541,119.98,48.9322,3.9669,38.4726,0.569232
2.7,139.869,303.552,120.959,48.986,2.68876,-63.9071,0.65888
2.72,140.849,303.564,121.94,49.0451,2.9551,13.3167,0.743369
2.74,141.832,303.578,122.923,49.1387,4.67829,86.1598,0.819725
2.76,142.816,303.592,123.907,49.1945,2.79356,-94.2368,0.89122
2.78,143.801,303.608,124.892,49.2546,3.00197,10.4204,0.957491
2.8,144.788,303.625,125.879,49.3447,4.50649,75.2265,1.01589
2.82,145.776,303.643,126.867,49.4113,3.32745,-58.9523,1.0685
2.84,146.764,303.662,127.856,49.4222,0.54735,-139.005,1.11582
2.86,147.755,303.681,128.847,49.557,6.74013,309.639,1.15575
2.88,148.747,303.702,129.839,49.6346,3.88006,-143.004,1.18893
2.9,149.741,303.723,130.833,49.6952,3.02902,-42.5521,1.21677
2.92,150.736,303.744,131.829,49.773,3.89121,43.1098,1.23775
2.94,151.732,303.766,132.825,49.8117,1.93337,-97.892,1.25101
2.96,152.73,303.788,133.824,49.9224,5.53409,180.036,1.25892
2.98,153.73,303.81,134.823,49.9938,3.57356,-98.0262,1.26053
3,154.732,303.832,135.825,50.0923,4.92357,67.5006,1.25346
3.02,155.733,303.854,136.827,50.1032,0.546641,-218.847,1.24102
3.04,156.738,303.875,137.832,50.2186,5.76964,261.15,1.22272
3.06,157.744,303.896,138.838,50.3245,5.29228,-23.868,1.19509
3.08,158.751,303.917,139.846,50.3886,3.20486,-104.371,1.16181
3.1,159.759,303.938,140.854,50.4043,0.784587,-121.014,1.12265
3.12,160.77,303.957,141.865,50.5533,7.45374,333.458,1.07467
3.14,161.783,303.976,142.878,50.628,3.73238,-186.068,1.02011
3.16,162.796,303.993,143.892,50.6935,3.27371,-22.9336,0.95962
3.18,163.812,304.009,144.907,50.7867,4.66338,69.4836,0.890836
3.2,164.829,304.025,145.925,50.872,4.26314,-20.0118,0.814468
3.22,165.848,304.038,146.943,50.9385,3.32375,-46.9696,0.732117
3.24,166.868,304.05,147.964,51.026,4.37502,52.5633,0.641998
3.26,167.891,304.061,148.986,51.1238,4.89311,25.9048,0.543202
3.28,168.914,304.07,150.009,51.1413,0.874769,-200.917,0.438331
3.3,169.939,304.077,151.035,51.2727,6.56865,284.694,0.326254
3.32,170.967,304.082,152.062,51.3845,5.5924,-48.8124,0.204265
3.34,171.996,304.084,153.092,51.4548,3.51429,-103.905,0.0760342
3.36,173.026,304.085,154.122,51.5321,3.86486,17.5284,-0.0590168
3.38,174.059,304.082,155.155,51.6543,6.11013,112.263,-0.204822
3.4,175.094,304.077,156.19,51.7327,3.91679,-109.667,-0.357497
3.42,176.13,304.069,157.226,51.8129,4.01195,4.75806,-0.517192
3.44,177.169,304.058,158.265,51.9301,5.85988,92.3967,-0.687059
3.46,178.209,304.045,159.305,52.0273,4.86047,-49.9705,-0.865389
3.48,179.251,304.027,160.348,52.1128,4.27433,-29.3069,-1.05099
3.5,180.296,304.006,161.392,52.2229,5.50417,61.4919,-1.24605
3.52,181.342,303.982,162.439,52.344,6.05473,27.5279,-1.4515
3.54,182.39,303.954,163.487,52.3848,2.03911,-200.781,-1.66451
3.56,183.44,303.921,164.537,52.5379,7.65581,280.835,-1.8861
3.58,184.492,303.884,165.59,52.6388,5.04653,-130.464,-2.12041
3.6,185.546,303.843,166.645,52.7383,4.97603,-3.52493,-2.36284
3.62,186.602,303.796,167.702,52.8477,5.47072,24.7346,-2.614
3.64,187.661,303.746,168.762,52.9973,7.47664,100.296,-2.87753
3.66,188.722,303.69,169.824,53.1272,6.49547,-49.0582,-3.15163
3.68,189.784,303.63,170.888,53.1949,3.3865,-155.449,-3.4349
3.7,190.849,303.562,171.955,53.3383,7.16806,189.078,-3.72922
3.72,191.916,303.49,173.025,53.5136,8.76554,79.8738,-4.03755
3.74,192.985,303.411,174.097,53.594,4.02008,-237.273,-4.35581
3.76,194.057,303.328,175.172,53.7339,6.99617,148.804,-4.68474
3.78,195.131,303.236,176.25,53.9296,9.78679,139.531,-5.02841
3.8,196.208,303.138,177.332,54.0526,6.14646,-182.017,-5.38498
3.82,197.286,303.033,178.415,54.1593,5.33654,-40.4957,-5.75286
3.84,198.366,302.921,179.5,54.2808,6.07525,36.9355,-6.13319
3.86,199.45,302.801,180.591,54.5248,12.1992,306.199,-6.53174
3.88,200.535,302.672,181.684,54.6638,6.94897,-262.514,-6.9429
3.9,201.624,302.536,182.781,54.8492,9.27342,116.223,-7.36721
3.92,202.714,302.391,183.881,54.9751,6.29054,-149.144,-7.80684
3.94,203.807,302.236,184.985,55.198,11.1459,242.769,-8.26569
3.96,204.902,302.072,186.092,55.3715,8.67646,-123.473,-8.73912
3.98,206,301.899,187.203,55.5554,9.1962,25.9872,-9.22776
4,207.099,301.716,188.317,55.7193,8.19123,-50.2484,-9.7339
4.02,208.202,301.521,189.437,56.0013,14.1043,295.654,-10.2618
4.04,209.306,301.316,190.561,56.1659,8.22602,-293.915,-10.8066
4.06,210.414,301.099,191.689,56.4195,12.6825,222.826,-11.369
4.08,211.522,300.87,192.821,56.5757,7.81119,-243.568,-11.9503
4.1,212.633,300.629,193.958,56.8662,14.5224,335.562,-12.5567
4.12,213.747,300.374,195.1,57.1196,12.6727,-92.4879,-13.1835
4.14,214.862,300.107,196.247,57.319,9.96985,-135.141,-13.8307
4.16,215.979,299.825,197.399,57.607,14.3969,221.351,-14.4992
4.18,217.098,299.529,198.556,57.8729,13.2952,-55.0845,-15.1918
4.2,218.218,299.217,199.719,58.1524,13.9787,34.175,-15.9122
4.22,219.34,298.89,200.888,58.4392,14.3386,17.9959,-16.6561
4.24,220.463,298.545,202.062,58.7084,13.458,-44.031,-17.4242
4.26,221.586,298.184,203.242,58.9959,14.3742,45.8126,-18.2173
4.28,222.71,297.806,204.429,59.3107,15.7441,68.4948,-19.037
4.3,223.836,297.409,205.622,59.6747,18.1961,122.597,-19.8895
4.32,224.96,296.992,206.821,59.9358,13.0573,-256.938,-20.7689
4.34,226.078,296.558,208.02,59.9632,1.36717,-584.506,-21.6716
4.36,227.182,296.11,209.212,59.5937,-18.4739,-992.053,-22.591
4.38,228.267,295.648,210.391,58.9467,-32.3465,-693.629,-23.5236
4.4,229.335,295.172,211.56,58.4498,-24.8485,374.9,-24.4693
4.42,230.385,294.684,212.718,57.9138,-26.7975,-97.4529,-25.4334
4.44,231.418,294.182,213.866,57.4079,-25.2973,75.0104,-26.4115
4.46,232.433,293.666,215.005,56.9406,-23.3635,96.689,-27.4018
4.48,233.432,293.138,216.135,56.5073,-21.6658,84.887,-28.4042
4.5,234.414,292.596,217.257,56.1049,-20.1177,77.4043,-29.4182
4.52,235.38,292.04,218.372,55.7137,-19.562,27.7864,-30.4435
4.54,236.33,291.471,219.479,55.349,-18.2364,66.2808,-31.4796
4.56,237.263,290.887,220.58,55.048,-15.0493,159.355,-32.5263
4.58,238.18,290.29,221.674,54.7045,-17.1745,-106.26,-33.5832
4.6,239.081,289.68,222.762,54.409,-14.7759,119.927,-34.6533
4.62,239.967,289.056,223.846,54.1998,-10.4579,215.901,-35.7332
4.64,240.836,288.417,224.924,53.9345,-13.2654,-140.373,-36.8212
4.66,241.691,287.765,225.999,53.7392,-9.76663,174.939,-37.9167
4.68,242.529,287.099,227.069,53.5009,-11.9161,-107.474,-39.019
4.7,243.351,286.419,228.137,53.3833,-5.87918,301.846,-40.1277
4.72,244.158,285.726,229.201,53.1839,-9.96747,-204.414,-41.2433
4.74,244.949,285.018,230.262,53.0462,-6.88857,153.945,-42.3641
4.76,245.725,284.298,231.321,52.9536,-4.62673,113.092,-43.4891
4.78,246.485,283.563,232.378,52.8666,-4.35167,13.7532,-44.6177
4.8,247.229,282.813,233.434,52.7903,-3.81407,26.88,-45.7494
4.82,247.958,282.05,234.489,52.7606,-1.48694,116.357,-46.8838
4.84,248.67,281.274,235.542,52.6629,-4.8822,-169.763,-48.0198
4.86,249.367,280.484,236.596,52.7082,2.26536,357.378,-49.1562
4.88,250.048,279.679,237.65,52.6984,-0.493412,-137.939,-50.2925
4.9,250.714,278.862,238.705,52.7196,1.06034,77.6874,-51.4277
4.92,251.364,278.03,239.76,52.7803,3.03914,98.9403,-52.5606
4.94,251.998,277.185,240.817,52.8181,1.8876,-57.5773,-53.6905
4.96,252.616,276.326,241.875,52.8981,3.9977,105.505,-54.8171
4.98,253.218,275.454,242.935,52.9964,4.91501,45.8655,-55.9396
5,253.805,274.567,243.998,53.1614,8.25279,166.889,-57.0575
5.02,254.376,273.667,245.064,53.2908,6.4689,-89.1946,-58.1688
5.04,254.931,272.753,246.133,53.4769,9.30772,141.941,-59.2734
5.06,255.47,271.825,247.207,53.6768,9.99034,34.1309,-60.3711
5.08,255.994,270.883,248.285,53.9108,11.7015,85.5596,-61.4614
5.1,256.503,269.927,249.367,54.1202,10.4715,-61.5028,-62.543
5.12,256.995,268.957,250.455,54.3642,12.1999,86.4219,-63.6137
5.14,257.471,267.973,251.548,54.67,15.2901,154.509,-64.6717
5.16,257.933,266.975,252.648,55.0126,17.1319,92.089,-65.719
5.18,258.379,265.962,253.755,55.3454,16.6387,-24.6576,-66.7553
5.2,258.81,264.933,254.87,55.754,20.4274,189.435,-67.7802
5.22,259.225,263.89,255.993,56.1518,19.8912,-26.8109,-68.7932
5.24,259.625,262.83,257.126,56.6252,23.6714,189.012,-69.794
5.26,260.01,261.755,258.268,57.0958,23.529,-7.12295,-70.7812
5.28,260.38,260.664,259.42,57.6246,26.4402,145.562,-71.7519
5.3,260.734,259.558,260.581,58.0603,21.785,-232.761,-72.705
5.32,261.075,258.433,261.757,58.7657,35.2681,674.157,-73.6437
5.34,261.4,257.29,262.945,59.4056,31.9957,-163.622,-74.5679
5.36,261.709,256.131,264.144,59.9646,27.9492,-202.327,-75.4747
5.38,262.001,254.968,265.344,59.9933,1.43428,-1325.74,-76.3557
5.4,262.274,253.808,266.536,59.5857,-20.3782,-1090.62,-77.1982
5.42,262.528,252.652,267.719,59.1568,-21.4431,-53.2461,-78.008
5.44,262.765,251.499,268.896,58.8699,-14.3461,354.85,-78.7881
5.46,262.984,250.349,270.066,58.5021,-18.3912,-202.255,-79.5391
5.48,263.189,249.203,271.231,58.2253,-13.8377,227.676,-80.2615
5.5,263.377,248.064,272.385,57.7299,-24.7696,-546.594,-80.9456
5.52,263.551,246.927,273.535,57.4764,-12.6754,604.71,-81.6026
5.54,263.712,245.796,274.678,57.1557,-16.0372,-168.09,-82.2334
5.56,263.86,244.669,275.815,56.8403,-15.7712,13.2963,-82.8386
5.58,263.994,243.547,276.945,56.4955,-17.2386,-73.3706,-83.4107
5.6,264.118,242.43,278.068,56.1839,-15.5777,83.0488,-83.9555
5.62,264.231,241.317,279.187,55.9207,-13.1606,120.853,-84.4769
5.64,264.333,240.209,280.3,55.6661,-12.7288,21.5922,-84.9753
5.66,264.425,239.107,281.406,55.2694,-19.8367,-355.399,-85.4422
5.68,264.508,238.01,282.506,55.0169,-12.6265,360.51,-85.8849
5.7,264.583,236.916,283.602,54.7986,-10.9149,85.5842,-86.3065
5.72,264.649,235.828,284.692,54.5291,-13.4754,-128.029,-86.7066
5.74,264.708,234.745,285.777,54.2061,-16.1472,-133.588,-87.0751
5.76,264.759,233.668,286.855,53.9123,-14.6914,72.7904,-87.4239
5.78,264.804,232.595,287.929,53.731,-9.06319,281.409,-87.7533
5.8,264.842,231.544,288.981,52.5773,-57.6891,-2431.3,-88.0525
5.82,264.874,230.536,289.99,50.4323,-107.247,-2477.89,-88.3177
5.84,264.901,229.569,290.956,48.3285,-105.191,102.775,-88.5567
5.86,264.922,228.646,291.88,46.1903,-106.909,-85.8899,-88.7708
5.88,264.94,227.765,292.761,44.0653,-106.25,32.9496,-88.9565
5.9,264.953,226.923,293.604,42.1112,-97.7039,427.312,-89.1201
5.92,264.965,226.118,294.408,40.2216,-94.4823,161.084,-89.2671
5.94,264.974,225.354,295.172,38.2196,-100.098,-280.808,-89.3964
5.96,264.981,224.639,295.887,35.7459,-123.686,-1179.39,-89.5017
5.98,264.986,223.956,296.57,34.1537,-79.6083,2203.9,-89.5945
6,264.99,223.309,297.217,32.3548,-89.9461,-516.893,-89.6742
6.02,264.993,222.713,297.813,29.7946,-128.01,-1903.21,-89.7398
6.04,264.995,222.134,298.392,28.9433,-42.5631,4272.37,-89.8009
6.06,264.997,221.624,298.903,25.5267,-170.833,-6413.5,-89.8429
6.08,264.998,221.116,299.41,25.3686,-7.90452,8146.42,-89.8842
6.1,264.999,220.689,299.838,21.378,-199.529,-9581.23,-89.9087
6.12,264.999,220.261,300.265,21.3791,0.0537502,9979.14,-89.9333
6.14,265,219.901,300.625,17.9895,-169.478,-8476.57,-89.95
6.16,265,219.574,300.952,16.3452,-82.2157,4363.1,-89.9628
6.18,265,219.248,301.279,16.3452,1.04392e-06,4110.79,-89.9756
6.2,265,219.033,301.493,10.726,-280.96,-14048,-89.9823
6.22,265,218.898,301.628,6.72609,-199.996,4048.21,-89.9846
6.24,265,218.763,301.763,6.77609,2.5,10124.8,-89.9869
6.26,265,218.628,301.898,6.72609,-2.5,-250,-89.9892
6.28,265,218.494,302.032,6.72609,9.82334e-09,125,-89.9915
6.3,265,218.359,302.167,6.72609,7.72968e-09,-1.04683e-07,-89.9938
6.32,265,218.225,302.301,6.72609,5.64739e-09,-1.04114e-07,-89.9961
