"time","x","y","position","velocity","acceleration","jerk","heading"
0,13.9736,28.5588,0,0,90,0,0
0.02,14.1077,28.5588,0.134164,1.8,90,0,8.93801e-05
0.04,14.2419,28.5588,0.268328,3.6,90,0,0.00017876
0.06,14.3761,28.5588,0.402492,5.4,90,0,0.00026814
0.08,14.5102,28.5588,0.536656,7.2,90,0,0.00035752
0.1,14.6444,28.5588,0.67082,9,90,0,0.0004469
0.12,14.7786,28.5588,0.804984,10.8,90,0,0.00053628
0.14,14.9127,28.5588,0.939149,12.6,90,0,0.00062566
0.16,15.1506,28.5588,1.17699,14.4,90,0,0.000893722
0.18,15.4745,28.5588,1.50089,16.2,90,0,0.00131009
0.2,15.7984,28.5588,1.82479,18,90,0,0.00172647
0.22,16.1674,28.5588,2.19378,19.8,90,0,0.0023332
0.24,16.5895,28.5588,2.6159,21.6,90,0,0.00316424
0.26,17.0187,28.5589,3.04509,23.4,90,0,0.00406409
0.28,17.5194,28.5589,3.5458,25.2,90,0,0.00565917
0.3,18.0264,28.5589,4.05279,27,90,0,0.00730677
0.32,18.5947,28.559,4.62111,28.8,90,0,0.00946722
0.34,19.1831,28.5591,5.20954,30.6,90,0,0.0118527
0.36,19.8118,28.5593,5.83818,32.4,90,0,0.0146884
0.38,20.4812,28.5595,6.50763,34.2,90,0,0.0183135
0.4,21.179,28.5597,7.20545,36,90,0,0.0224283
0.42,21.9135,28.56,7.93989,37.8,90,0,0.0270992
0.44,22.6915,28.5604,8.71796,39.6,90,0,0.0325658
0.46,23.5021,28.5609,9.52856,41.4,90,0,0.0389829
0.48,24.3471,28.5616,10.3736,43.2,90,0,0.0463234
0.5,25.2277,28.5623,11.2541,45,90,0,0.0545272
0.52,26.1444,28.5633,12.1708,46.8,88.2917,0,0.0637923
0.54,27.0973,28.5644,13.1238,48.5748,70.0991,0,0.0745673
0.56,28.0828,28.5658,14.1093,50,0,0,0.0866033
0.58,29.0828,28.5674,15.1093,50,0,0,0.0997276
0.6,30.0828,28.5693,16.1093,50,0,0,0.114028
0.62,31.0828,28.5714,17.1093,50,0,0,0.129619
0.64,32.0828,28.5738,18.1093,50,0,0,0.146233
0.66,33.0828,28.5765,19.1093,50,0,0,0.163946
0.68,34.0828,28.5795,20.1093,50,0,0,0.183039
0.7,35.0828,28.5829,21.1093,50,0,0,0.203497
0.72,36.0828,28.5866,22.1093,50,0,0,0.22513
0.74,37.0828,28.5907,23.1093,50,0,0,0.247972
0.76,38.0828,28.5953,24.1093,50,0,0,0.272079
0.78,39.0828,28.6002,25.1093,50,0,0,0.297688
0.8,40.0828,28.6057,26.1093,50,0,0,0.324519
0.82,41.0828,28.6116,27.1093,50,0,0,0.352486
0.84,42.0827,28.618,28.1093,50,0,0,0.381531
0.86,43.0827,28.6249,29.1093,50,0,0,0.411568
0.88,44.0827,28.6323,30.1093,50,0,0,0.442476
0.9,45.0826,28.6403,31.1093,50,0,0,0.474107
0.92,46.0826,28.6489,32.1093,50,0,0,0.506262
0.94,47.0826,28.658,33.1093,50,0,0,0.538617
0.96,48.0825,28.6677,34.1093,50,0,0,0.5709
0.98,49.0825,28.6779,35.1093,50,0,0,0.602804
1,50.0824,28.6887,36.1093,50,0,0,0.633998
1.02,51.0823,28.7001,37.1093,50,0,0,0.66413
1.04,52.0823,28.7119,38.1093,50,0,0,0.692843
1.06,53.0822,28.7242,39.1093,50,0,0,0.719782
1.08,54.0821,28.737,40.1093,50,0,0,0.744612
1.1,55.082,28.7502,41.1093,50,0,0,0.76703
1.12,56.0819,28.7638,42.1093,50,0,0,0.786774
1.14,57.0818,28.7777,43.1093,50,0,0,0.803633
1.16,58.0817,28.7919,44.1093,50,0,0,0.817455
1.18,59.0816,28.8062,45.1093,50,0,0,0.828148
1.2,60.0815,28.8208,46.1093,50,0,0,0.83567
1.22,61.0814,28.8354,47.1093,50,0,0,0.839949
1.24,62.0813,28.8501,48.1093,50,0,0,0.840997
1.26,63.0812,28.8647,49.1093,50,0,0,0.839085
1.28,64.0811,28.8794,50.1093,50,0,0,0.83437
1.3,65.081,28.8939,51.1093,50,0,0,0.827032
1.32,66.0809,28.9082,52.1093,50,0,0,0.817266
1.34,67.0808,28.9224,53.1093,50,0,0,0.805269
1.36,68.0807,28.9363,54.1093,50,0,0,0.791239
1.38,69.0806,28.95,55.1093,50,0,0,0.775335
1.4,70.0805,28.9634,56.1093,50,0,0,0.757505
1.42,71.0804,28.9765,57.1093,50,0,0,0.738134
1.44,72.0804,28.9892,58.1093,50,0,0,0.717463
1.46,73.0803,29.0015,59.1093,50,0,0,0.695627
1.48,74.0802,29.0134,60.1093,50,0,0,0.672721
1.5,75.0801,29.025,61.1093,50,0,0,0.64867
1.52,76.0801,29.0361,62.1093,50,0,0,0.623686
1.54,77.08,29.0468,63.1093,50,0,0,0.597962
1.56,78.08,29.057,64.1093,50,0,0,0.571536
1.58,79.0799,29.0667,65.1093,50,0,0,0.544306
1.6,80.0799,29.076,66.1093,50,0,0,0.516359
1.62,81.0798,29.0847,67.1093,50,0,0,0.487861
1.64,82.0798,29.093,68.1093,50,0,0,0.4588
1.66,83.0798,29.1007,69.1093,50,0,0,0.428908
1.68,84.0797,29.108,70.1093,50,0,0,0.398476
1.7,85.0797,29.1147,71.1093,50,0,0,0.367495
1.72,86.0797,29.1208,72.1093,50,0,0,0.335702
1.74,87.0797,29.1264,73.1093,50,0,0,0.303191
1.76,88.0797,29.1314,74.1093,50,0,0,0.27006
1.78,89.0797,29.1358,75.1093,50,0,0,0.235989
1.8,90.0797,29.1396,76.1093,50,0,0,0.200966
1.82,91.0797,29.1428,77.1093,50,0,0,0.165167
1.84,92.0797,29.1454,78.1093,50,0,0,0.128128
1.86,93.0797,29.1473,79.1093,50,0,0,0.0898303
1.88,94.0797,29.1485,80.1093,50,0,0,0.0504948
1.9,95.0796,29.1491,81.1093,50,0,0,0.0118453
1.92,96.0796,29.149,82.1093,50,0,0,-0.00653489
1.94,97.0796,29.1488,83.1093,50,0,0,-0.0101669
1.96,98.0796,29.1486,84.1093,50,0,0,-0.00490162
1.98,99.0796,29.1487,85.1093,50,0,0,0.0108549
2,100.08,29.149,86.1093,50,0,0,0.0364786
2.02,101.08,29.1499,87.1093,50,0,0,0.0707525
2.04,102.08,29.1515,88.1093,50,0,0,0.113673
2.06,103.08,29.1539,89.1093,50,0,0,0.165548
2.08,104.08,29.1573,90.1093,50,0,0,0.228629
2.1,105.08,29.1619,91.1093,50,0,0,0.300684
2.12,106.08,29.1678,92.1093,50,0,0,0.3814
2.14,107.08,29.1751,93.1093,50,0,0,0.470851
2.16,108.08,29.1842,94.1093,50,0,0,0.569755
2.18,109.079,29.1951,95.1093,50,0,0,0.679757
2.2,110.079,29.2079,96.1093,50,0,0,0.798526
2.22,111.079,29.2229,97.1093,50,0,0,0.926106
2.24,112.079,29.2402,98.1093,50,0,0,1.06267
2.26,113.079,29.26,99.1093,50,0,0,1.20946
2.28,114.079,29.2824,100.109,50,0,0,1.36697
2.3,115.078,29.3077,101.109,50,0,0,1.53355
2.32,116.078,29.3359,102.109,50,0,0,1.70926
2.34,117.077,29.3673,103.109,50,0,0,1.89439
2.36,118.077,29.4021,104.109,50,0,0,2.09048
2.38,119.076,29.4403,105.109,50,0,0,2.29741
2.4,120.075,29.4822,106.109,50,0,0,2.51393
2.42,121.074,29.528,107.109,50,0,0,2.74015
2.44,122.073,29.5778,108.109,50,0,0,2.97639
2.46,123.072,29.6319,109.109,50,0,0,3.22423
2.48,124.07,29.6903,110.109,50,0,0,3.48372
2.5,125.068,29.7534,111.109,50,0,0,3.75358
2.52,126.066,29.8212,112.109,50,0,0,4.034
2.54,127.063,29.8941,113.109,50,0,0,4.32524
2.56,128.06,29.9721,114.109,50,0,0,4.62847
2.58,129.056,30.0555,115.109,50,0,0,4.9451
2.6,130.052,30.1445,116.109,50,0,0,5.2732
2.62,131.048,30.2393,117.109,50,0,0,5.61304
2.64,132.043,30.3401,118.109,50,0,0,5.96486
2.66,133.037,30.4471,119.109,50,0,0,6.3292
2.68,134.031,30.5606,120.109,50,0,0,6.70828
2.7,135.023,30.6807,121.109,50,0,0,7.10125
2.72,136.015,30.8078,122.109,50,0,0,7.50751
2.74,137.006,30.942,123.109,50,0,0,7.92739
2.76,137.996,31.0836,124.109,50,0,0,8.36127
2.78,138.985,31.2329,125.109,50,0,0,8.80973
2.8,139.972,31.39,126.109,50,0,0,9.27484
2.82,140.959,31.5552,127.109,50,0,0,9.75646
2.84,141.943,31.7289,128.109,50,0,0,10.2538
2.86,142.927,31.9112,129.109,50,0,0,10.7672
2.88,143.908,32.1025,130.109,50,0,0,11.2973
2.9,144.888,32.303,131.109,50,0,0,11.8445
2.92,145.866,32.513,132.109,50,0,0,12.4094
2.94,146.841,32.7328,133.109,50,0,0,12.994
2.96,147.814,32.9627,134.109,50,0,0,13.5988
2.98,148.785,33.2031,135.109,50,0,0,14.2227
3,149.753,33.4541,136.109,50,0,0,14.8664
3.02,150.718,33.7162,137.109,50,0,0,15.5305
3.04,151.68,33.9896,138.109,50,0,0,16.2155
3.06,152.638,34.2746,139.109,50,0,0,16.9219
3.08,153.593,34.5717,140.109,50,0,0,17.6504
3.1,154.544,34.8811,141.109,50,0,0,18.4015
3.12,155.491,35.2031,142.109,50,0,0,19.1762
3.14,156.433,35.5381,143.109,50,0,0,19.9765
3.16,157.371,35.8864,144.109,50,0,0,20.8009
3.18,158.303,36.2483,145.109,50,-0.749771,0,21.6499
3.2,159.229,36.6242,146.109,49.985,-9.88174,0,22.5239
3.22,160.148,37.0135,147.107,49.788,-34.3676,0,23.4212
3.24,161.052,37.4137,148.096,49.1004,-32.7765,0,24.3359
3.26,161.938,37.8228,149.071,48.4442,-31.22,0,25.263
3.28,162.805,38.2407,150.034,47.8187,-29.6943,0,26.2022
3.3,163.655,38.6674,150.985,47.2237,-28.1964,0,27.1536
3.32,164.486,39.1026,151.923,46.6598,-26.7241,0,28.1171
3.34,165.3,39.5465,152.851,46.1251,-25.2735,0,29.0921
3.36,166.098,39.9992,153.768,45.6193,-23.8421,0,30.0781
3.38,166.879,40.4607,154.675,45.1418,-22.4278,0,31.0747
3.4,167.645,40.9309,155.573,44.6921,-21.0284,0,32.0816
3.42,168.394,41.41,156.463,44.27,-19.6423,0,33.0981
3.44,169.128,41.8979,157.345,43.875,-18.2677,0,34.124
3.46,169.847,42.3947,158.219,43.5067,-16.7636,0,35.1586
3.48,170.552,42.9004,159.086,43.1662,-15.182,0,36.2016
3.5,171.242,43.4149,159.946,42.8654,-16.5736,0,37.2531
3.52,171.916,43.9377,160.8,42.5342,-9.93204,0,38.314
3.54,172.577,44.4699,161.648,42.3297,-12.8969,0,39.3827
3.56,173.224,45.0113,162.492,42.0809,-10.5633,0,40.454
3.58,173.858,45.5619,163.332,41.8507,-7.36032,0,41.53
3.6,174.479,46.1218,164.167,41.7178,-9.76883,0,42.6133
3.62,175.086,46.6912,165,41.4977,-3.61474,0,43.6971
3.64,175.68,47.2697,165.829,41.4254,-6.02534,0,44.7891
3.66,176.261,47.8579,166.656,41.3069,-3.36853,0,45.8815
3.68,176.83,48.4559,167.482,41.2326,-1.81004,0,46.9766
3.7,177.387,49.0639,168.306,41.1968,-1.28955,0,48.0736
3.72,177.932,49.6819,169.13,41.165,0.472519,0,49.1707
3.74,178.464,50.31,169.953,41.1674,2.72349,0,50.2689
3.76,178.984,50.9488,170.777,41.2213,2.10587,0,51.366
3.78,179.493,51.598,171.602,41.2643,5.43114,0,52.4617
3.8,179.99,52.2581,172.428,41.363,6.26894,0,53.5557
3.82,180.476,52.9292,173.257,41.4968,5.81074,0,54.6471
3.84,180.95,53.6114,174.088,41.5947,10.262,0,55.7353
3.86,181.413,54.305,174.922,41.8005,10.0121,0,56.8219
3.88,181.865,55.011,175.76,42.0008,11.6182,0,57.9011
3.9,182.306,55.7289,176.602,42.2312,13.2,0,58.9746
3.92,182.736,56.4591,177.45,42.4926,14.7124,0,60.042
3.94,183.155,57.2017,178.302,42.7834,16.2541,0,61.1028
3.96,183.563,57.9572,179.161,43.1042,17.8286,0,62.1562
3.98,183.96,58.7258,180.026,43.4559,19.4399,0,63.2017
4,184.346,59.5089,180.899,43.8437,21.0989,0,64.2373
4.02,184.722,60.3062,181.781,44.2651,22.8072,0,65.2633
4.04,185.087,61.118,182.671,44.7201,24.5694,0,66.2795
4.06,185.442,61.9446,183.57,45.2099,26.3926,0,67.2853
4.08,185.786,62.7866,184.48,45.7359,28.2847,0,68.28
4.1,186.119,63.6444,185.4,46.2996,30.2553,0,69.2633
4.12,186.441,64.5187,186.332,46.9026,32.3089,0,70.2344
4.14,186.753,65.4101,187.276,47.5469,34.4092,0,71.193
4.16,187.054,66.3191,188.234,48.2335,36.5748,0,72.1382
4.18,187.345,67.2465,189.206,48.9638,34.8312,0,73.0688
4.2,187.624,68.1922,190.192,49.6651,16.6771,0,73.9834
4.22,187.891,69.1523,191.188,50,0,0,74.8782
4.24,188.145,70.1196,192.188,50,0,0,75.7465
4.26,188.384,71.0906,193.188,50,0,0,76.5856
4.28,188.609,72.065,194.188,50,0,0,77.3957
4.3,188.82,73.0424,195.188,50,0,0,78.1772
4.32,189.019,74.0225,196.188,50,0,0,78.9305
4.34,189.204,75.0051,197.188,50,0,0,79.6559
4.36,189.378,75.99,198.188,50,0,0,80.3538
4.38,189.539,76.9768,199.188,50,0,0,81.0229
4.4,189.69,77.9654,200.188,50,0,0,81.6631
4.42,189.829,78.9556,201.188,50,0,0,82.2773
4.44,189.958,79.9473,202.188,50,0,0,82.866
4.46,190.078,80.9401,203.188,50,0,0,83.4298
4.48,190.187,81.9341,204.188,50,0,0,83.9691
4.5,190.288,82.929,205.188,50,0,0,84.4838
4.52,190.379,83.9248,206.188,50,0,0,84.9721
4.54,190.463,84.9213,207.188,50,0,0,85.435
4.56,190.539,85.9184,208.188,50,0,0,85.8752
4.58,190.607,86.9161,209.188,50,0,0,86.2931
4.6,190.668,87.9143,210.188,50,0,0,86.6889
4.62,190.722,88.9128,211.188,50,0,0,87.0621
4.64,190.77,89.9116,212.188,50,-15.0795,0,87.4097
4.66,190.813,90.9076,213.185,49.6984,-81.8543,0,87.7341
4.68,190.849,91.8847,214.163,48.064,-90,0,88.0322
4.7,190.879,92.8281,215.107,46.264,-90,0,88.3015
4.72,190.904,93.7368,216.016,44.464,-90,0,88.5439
4.74,190.924,94.6057,216.885,42.664,-90,0,88.7545
4.76,190.941,95.4379,217.718,40.864,-90,0,88.9398
4.78,190.954,96.2351,218.515,39.064,-90,0,89.1041
4.8,190.965,96.9989,219.279,37.264,-90,0,89.2504
4.82,190.974,97.7324,220.012,35.464,-90,0,89.3812
4.84,190.98,98.416,220.696,33.664,-90,0,89.4893
4.86,190.986,99.069,221.349,31.864,-90,0,89.5835
4.88,190.99,99.6977,221.978,30.064,-90,0,89.6665
4.9,190.993,100.268,222.548,28.264,-90,0,89.7295
4.92,190.995,100.823,223.103,26.464,-90,0,89.788
4.94,190.997,101.323,223.603,24.664,-90,0,89.8323
4.96,190.998,101.808,224.088,22.864,-90,0,89.8732
4.98,190.999,102.23,224.51,21.064,-90,0,89.9016
5,190.999,102.652,224.932,19.264,-90,0,89.93
5.02,190.999,102.992,225.272,17.464,-90,0,89.9469
5.04,191,103.316,225.596,15.664,-90,0,89.9617
5.06,191,103.639,225.919,13.864,-90,0,89.9764
5.08,191,103.821,226.101,12.064,-90,0,89.9817
5.1,191,103.955,226.235,10.264,-90,0,89.9838
5.12,191,104.089,226.369,8.46402,-90,0,89.9858
5.14,191,104.223,226.503,6.66402,-90,0,89.9879
5.16,191,104.357,226.637,4.86402,-90,0,89.99
5.18,191,104.492,226.772,3.06402,-90,0,89.9921
5.2,191,104.626,226.906,1.26402,-90,0,89.9942
