"time","x","y","position","velocity","acceleration","jerk","heading"
0,102.142,69.4049,0,0,0,0,88.4518
0.02,102.142,69.4135,0.0086,0.43,21.5,1075,88.4518
0.04,102.143,69.4345,0.0296238,1.05119,31.0595,477.975,88.4518
0.06,102.144,69.4716,0.0667373,1.85567,40.2242,458.235,88.4518
0.08,102.145,69.5233,0.118442,2.58524,36.4785,-187.285,88.4519
0.1,102.147,69.5899,0.185072,3.3315,37.3129,41.7195,88.4519
0.12,102.149,69.6712,0.266392,4.06599,36.7244,-29.4224,88.452
0.14,102.152,69.7674,0.362634,4.8121,37.3054,29.0495,88.4521
0.16,102.155,69.8783,0.473574,5.54703,36.7465,-27.9458,88.4521
0.18,102.158,70.0041,0.599405,6.29155,37.226,23.9742,88.4522
0.2,102.162,70.1446,0.739958,7.02761,36.8029,-21.1543,88.4523
0.22,102.166,70.3,0.895399,7.77209,37.2244,21.0727,88.4525
0.24,102.171,70.47,1.06555,8.50771,36.781,-22.168,88.4529
0.26,102.176,70.6549,1.2505,9.24742,36.9853,10.2152,88.4533
0.28,102.181,70.8547,1.45035,9.99217,37.2374,12.605,88.4537
0.3,102.187,71.0692,1.66491,10.728,36.7914,-22.3017,88.4542
0.32,102.193,71.2984,1.89425,11.467,36.9505,7.95506,88.455
0.34,102.2,71.5425,2.13841,12.2081,37.0547,5.20926,88.4558
0.36,102.207,71.8014,2.39736,12.9476,36.9737,-4.04946,88.4567
0.38,102.214,72.075,2.67109,13.6866,36.9512,-1.12242,88.4579
0.4,102.222,72.3634,2.95963,14.4272,37.0295,3.91397,88.4593
0.42,102.23,72.6667,3.26297,15.1669,36.9865,-2.15099,88.4607
0.44,102.239,72.9847,3.5811,15.9066,36.9825,-0.197891,88.4627
0.46,102.247,73.3175,3.914,16.645,36.922,-3.02363,88.4647
0.48,102.257,73.6651,4.26174,17.3867,37.0832,8.05548,88.467
0.5,102.266,74.0273,4.62412,18.1191,36.6219,-23.0619,88.4697
0.52,102.277,74.4045,5.00144,18.8661,37.3474,36.2765,88.4726
0.54,102.287,74.7964,5.39351,19.6035,36.87,-23.8745,88.4759
0.56,102.298,75.2031,5.80029,20.3388,36.767,-5.14816,88.4795
0.58,102.309,75.6246,6.22193,21.0821,37.1649,19.894,88.4837
0.6,102.321,76.0608,6.65828,21.8177,36.7798,-19.2546,88.4881
0.62,102.332,76.5118,7.10948,22.5597,37.1007,16.0464,88.4931
0.64,102.345,76.9776,7.5754,23.2961,36.8201,-14.0282,88.4985
0.66,102.357,77.4581,8.05606,24.0333,36.8611,2.04678,88.5044
0.68,102.37,77.9535,8.55162,24.7779,37.2298,18.4347,88.5109
0.7,102.383,78.4635,9.06185,25.5115,36.6777,-27.6021,88.5179
0.72,102.397,78.9884,9.58687,26.2511,36.9806,15.1425,88.5255
0.74,102.411,79.528,10.1267,26.9892,36.9032,-3.86802,88.5338
0.76,102.425,80.0824,10.6813,27.7325,37.1658,13.1301,88.5427
0.78,102.439,80.6516,11.2506,28.4658,36.6666,-24.9606,88.5522
0.8,102.454,81.2355,11.8347,29.2047,36.9431,13.8257,88.5626
0.82,102.469,81.8342,12.4336,29.943,36.9161,-1.3503,88.5736
0.84,102.484,82.4476,13.0472,30.6808,36.8927,-1.17128,88.5854
0.86,102.5,83.0758,13.6756,31.4197,36.9428,2.507,88.5981
0.88,102.515,83.7187,14.3187,32.1563,36.8321,-5.53594,88.6116
0.9,102.531,84.3764,14.9766,32.8949,36.929,4.84538,88.6261
0.92,102.547,85.0489,15.6493,33.6328,36.8933,-1.78503,88.6414
0.94,102.564,85.7362,16.3368,34.3764,37.1797,14.3163,88.6577
0.96,102.58,86.4382,17.039,35.1078,36.5724,-30.3649,88.6749
0.98,102.596,87.1549,17.7558,35.8448,36.8466,13.7135,88.6933
1,102.613,87.8864,18.4875,36.5835,36.9393,4.63418,88.7126
1.02,102.63,88.6252,19.2265,36.9508,18.3631,-928.811,88.733
1.04,102.646,89.364,19.9655,36.948,-0.139739,-925.141,88.7541
1.06,102.662,90.1029,20.7045,36.9516,0.177947,15.8843,88.7758
1.08,102.677,90.8416,21.4434,36.9436,-0.398301,-28.8124,88.7983
1.1,102.693,91.5803,22.1823,36.943,-0.0316265,18.3337,88.8215
1.12,102.708,92.319,22.9212,36.9452,0.113586,7.26063,88.8454
1.14,102.723,93.0576,23.6599,36.9386,-0.333942,-22.3764,88.87
1.16,102.737,93.7963,24.3988,36.9409,0.116971,22.5457,88.8953
1.18,102.75,94.5349,25.1374,36.9342,-0.33395,-22.5461,88.9213
1.2,102.764,95.2735,25.8762,36.9375,0.165961,24.9956,88.948
1.22,102.777,96.0121,26.6149,36.935,-0.1296,-14.7781,88.9754
1.24,102.79,96.7506,27.3536,36.9333,-0.0839945,2.28029,89.0035
1.26,102.803,97.4891,28.0922,36.9316,-0.0839937,4.02331e-05,89.0323
1.28,102.815,98.2276,28.8308,36.9291,-0.126223,-2.11149,89.0618
1.3,102.827,98.9661,29.5693,36.9274,-0.0839943,2.11146,89.092
1.32,102.839,99.7045,30.3078,36.926,-0.0719941,0.600008,89.1228
1.34,102.85,100.443,31.046,36.9083,-0.884763,-40.6384,89.1544
1.36,102.861,101.181,31.7845,36.9268,0.927895,90.6329,89.1866
1.38,102.871,101.919,32.523,36.9242,-0.131462,-52.9679,89.2196
1.4,102.881,102.658,33.2615,36.9227,-0.0719951,2.97337,89.2532
1.42,102.89,103.396,33.9999,36.9204,-0.116085,-2.20451,89.2875
1.44,102.899,104.135,34.7383,36.919,-0.0719955,2.20449,89.3224
1.46,102.908,104.873,35.4766,36.9171,-0.0959922,-1.19984,89.3581
1.48,102.916,105.611,36.2149,36.915,-0.10071,-0.235891,89.3944
1.5,102.923,106.349,36.9532,36.9129,-0.109329,-0.430955,89.4314
1.52,102.93,107.087,37.6914,36.9114,-0.0719962,1.86665,89.469
1.54,102.937,107.826,38.4296,36.9097,-0.0839934,-0.59986,89.5073
1.56,102.943,108.564,39.1677,36.9079,-0.093954,-0.498032,89.5462
1.58,102.949,109.302,39.9059,36.9064,-0.0719942,1.09799,89.5857
1.6,102.954,110.04,40.644,36.9044,-0.102575,-1.52905,89.6259
1.62,102.958,110.778,41.382,36.9026,-0.0871958,0.768967,89.6667
1.64,102.962,111.516,42.12,36.9012,-0.0719963,0.759978,89.7081
1.66,102.966,112.254,42.858,36.8997,-0.0719937,0.000129674,89.7501
1.68,102.969,112.992,43.596,36.8981,-0.0838202,-0.591325,89.7927
1.7,102.971,113.73,44.3339,36.8965,-0.08044,0.169009,89.8359
1.72,102.973,114.468,45.0718,36.895,-0.0719955,0.422226,89.8797
1.74,102.974,115.206,45.8097,36.8937,-0.065063,0.346621,89.924
1.76,102.975,115.943,46.5475,36.8923,-0.0719947,-0.346584,89.9689
1.78,102.975,116.681,47.2854,36.8913,-0.0496861,1.11543,90.0142
1.8,102.975,117.419,48.0232,36.8898,-0.0719937,-1.11538,90.0601
1.82,102.974,118.157,48.7609,36.8889,-0.0463085,1.28426,90.1064
1.84,102.972,118.895,49.4987,36.8878,-0.0549276,-0.430956,90.1532
1.86,102.97,119.632,50.2364,36.8869,-0.0479967,0.346548,90.2004
1.88,102.967,120.37,50.9741,36.8858,-0.0515502,-0.177674,90.2481
1.9,102.963,121.108,51.7119,36.8853,-0.024172,1.36891,90.2961
1.92,102.959,121.845,52.4495,36.8844,-0.0479977,-1.19128,90.3445
1.94,102.954,122.583,53.1872,36.884,-0.0207948,1.36014,90.3932
1.96,102.949,123.321,53.9249,36.883,-0.047996,-1.36006,90.4423
1.98,102.943,124.058,54.6625,36.8831,0.00658059,2.72883,90.4915
2,102.936,124.796,55.4002,36.8826,-0.0260373,-1.6309,90.5411
2.02,102.929,125.534,56.1378,36.8824,-0.0119992,0.701907,90.5908
2.04,102.921,126.27,56.8745,36.8327,-2.48652,-123.726,90.6406
2.06,102.912,127.008,57.6122,36.8827,2.50457,249.554,90.6906
2.08,102.903,127.745,58.3498,36.8827,-5.68955e-07,-125.229,90.7406
2.1,102.893,128.483,59.0875,36.8831,0.0200925,1.00466,90.7907
2.12,102.883,129.221,59.8251,36.8834,0.0120006,-0.404595,90.8407
2.14,102.872,129.958,60.5628,36.8841,0.035468,1.17337,90.8907
2.16,102.86,130.696,61.3005,36.8851,0.0508458,0.768889,90.9406
2.18,102.847,131.433,62.0383,36.8867,0.0782225,1.36884,90.9902
2.2,102.834,132.171,62.776,36.8872,0.0239968,-2.71128,91.0396
2.22,102.82,132.909,63.5138,36.8885,0.0695991,2.28011,91.0888
2.24,102.807,133.646,64.2516,36.8895,0.047997,-1.0801,91.1376
2.26,102.792,134.383,64.9884,36.8417,-2.39051,-121.926,91.1859
2.28,102.776,135.121,65.7263,36.8937,2.59984,249.518,91.2338
2.3,102.76,135.859,66.4642,36.8951,0.0719944,-126.392,91.2811
2.32,102.743,136.596,67.2021,36.8975,0.115725,2.18652,91.3279
2.34,102.726,137.334,67.9401,36.8994,0.095994,-0.986543,91.3739
2.36,102.708,138.071,68.6772,36.8522,-2.35616,-122.608,91.4192
2.38,102.689,138.809,69.4153,36.9054,2.65773,250.695,91.4637
2.4,102.67,139.547,70.1534,36.9076,0.107992,-127.487,91.5073
2.42,102.65,140.285,70.8916,36.9113,0.185847,3.89276,91.5499
2.44,102.63,141.022,71.6289,36.8637,-2.37909,-128.247,91.5915
2.46,102.609,141.76,72.3673,36.9177,2.70031,253.97,91.632
2.48,102.588,142.498,73.1057,36.9206,0.14399,-127.816,91.6713
2.5,102.566,143.235,73.8432,36.8752,-2.2703,-120.715,91.7093
2.52,102.544,143.973,74.5817,36.9283,2.65488,246.259,91.746
2.54,102.521,144.712,75.3204,36.9329,0.231967,-121.146,91.7814
2.56,102.498,145.449,76.0581,36.8865,-2.3188,-127.539,91.8153
2.58,102.474,146.187,76.797,36.9419,2.77013,254.447,91.8476
2.6,102.45,146.926,77.5359,36.9455,0.179987,-129.507,91.8784
2.62,102.427,147.663,78.2739,36.8994,-2.3067,-124.334,91.9076
2.64,102.402,148.402,79.013,36.9556,2.80939,255.805,91.9349
2.66,102.377,149.14,79.7512,36.9095,-2.30659,-255.799,91.9606
2.68,102.351,149.879,80.4905,36.9655,2.80066,255.362,91.9845
2.7,102.325,150.618,81.2299,36.9703,0.239982,-128.034,92.0064
2.72,102.299,151.356,81.9684,36.9246,-2.28247,-126.123,92.0265
2.74,102.273,152.095,82.708,36.9792,2.72644,250.446,92.0447
2.76,102.247,152.833,83.4467,36.9345,-2.23447,-248.046,92.0607
2.78,102.22,153.572,84.1865,36.9908,2.81591,252.519,92.0748
2.8,102.193,154.311,84.9254,36.9456,-2.25835,-253.713,92.0869
2.82,102.166,155.05,85.6654,37.0006,2.75032,250.433,92.0969
2.84,102.139,155.789,86.4045,36.9557,-2.24635,-249.834,92.1048
2.86,102.112,156.529,87.1447,37.0105,2.73832,249.234,92.1107
2.88,102.084,157.268,87.8841,36.9674,-2.15339,-244.585,92.1145
2.9,102.057,158.007,88.6245,37.021,2.68135,241.737,92.116
2.92,102.03,158.746,89.364,36.9756,-2.27035,-247.585,92.1156
2.94,102.002,159.487,90.1046,37.0322,2.83116,255.076,92.1132
2.96,101.975,160.226,90.8444,36.9859,-2.3152,-257.318,92.1085
2.98,101.948,160.966,91.5852,37.0405,2.72632,252.076,92.1019
3,101.921,161.706,92.3251,36.9953,-2.25835,-249.234,92.0933
3.02,101.894,162.446,93.0661,37.0503,2.75032,250.433,92.0826
3.04,101.867,163.186,93.8062,37.0049,-2.27035,-251.033,92.07
3.06,101.84,163.926,94.5474,37.0589,2.70232,248.634,92.0557
3.08,101.814,164.666,95.2876,37.0125,-2.32394,-251.313,92.0392
3.1,101.788,165.407,96.0289,37.0665,2.70244,251.319,92.021
3.12,101.762,166.147,96.7693,37.0204,-2.30647,-250.446,92.0012
3.14,101.736,166.888,97.5108,37.0749,2.72644,251.645,91.9795
3.16,101.711,167.628,98.2514,37.0273,-2.38068,-255.356,91.9561
3.18,101.686,168.369,98.993,37.0809,2.67856,252.962,91.9312
3.2,101.661,169.111,99.7347,37.0842,0.167988,-125.529,91.9049
3.22,101.635,169.851,100.475,37.0383,-2.29459,-123.129,91.8769
3.24,101.611,170.592,101.217,37.09,2.58384,243.921,91.8475
3.26,101.588,171.333,101.958,37.0413,-2.43416,-250.9,91.8169
3.28,101.564,172.074,102.7,37.096,2.73413,258.414,91.785
3.3,101.542,172.816,103.442,37.096,0.000657809,-136.674,91.7518
3.32,101.519,173.557,104.183,37.0502,-2.29082,-114.574,91.7175
3.34,101.497,174.298,104.925,37.1011,2.54281,241.681,91.6822
3.36,101.476,175.04,105.667,37.1022,0.0593851,-124.171,91.6458
3.38,101.455,175.781,106.408,37.0544,-2.391,-122.519,91.6085
3.4,101.434,176.523,107.15,37.1063,2.59498,249.299,91.5704
3.42,101.414,177.265,107.892,37.1069,0.0267638,-128.411,91.5315
3.44,101.395,178.006,108.634,37.1075,0.0301364,0.168629,91.4918
3.46,101.376,178.747,109.376,37.0592,-2.41518,-122.266,91.4514
3.48,101.357,179.489,110.118,37.1103,2.55917,248.717,91.4105
3.5,101.339,180.231,110.86,37.1105,0.00951554,-127.483,91.369
3.52,101.322,180.973,111.602,37.1103,-0.0111093,-1.03124,91.3271
3.54,101.305,181.715,112.345,37.1115,0.0599964,3.55528,91.2847
3.56,101.289,182.456,113.086,37.0614,-2.50715,-128.357,91.2419
3.58,101.273,183.198,113.828,37.1121,2.53541,252.128,91.1988
3.6,101.258,183.941,114.57,37.1115,-0.028355,-128.188,91.1555
3.62,101.243,184.683,115.312,37.112,0.0239979,2.61765,91.112
3.64,101.228,185.425,116.055,37.1115,-0.0249782,-2.44881,91.0683
3.66,101.214,186.167,116.797,37.1117,0.0119981,1.84881,91.0245
3.68,101.201,186.908,117.538,37.0608,-2.54521,-127.861,90.9807
3.7,101.189,187.65,118.28,37.1102,2.46939,250.73,90.9368
3.72,101.177,188.392,119.023,37.1102,5.45141e-07,-123.469,90.8929
3.74,101.166,189.134,119.765,37.109,-0.0628451,-3.14228,90.8492
3.76,101.155,189.876,120.507,37.109,-1.69303e-07,3.14224,90.8055
3.78,101.145,190.618,121.249,37.108,-0.0474681,-2.3734,90.7619
3.8,101.136,191.361,121.991,37.1069,-0.0560916,-0.431175,90.7185
3.82,101.127,192.103,122.733,37.1062,-0.0359959,1.00479,90.6754
3.84,101.118,192.845,123.475,37.1059,-0.0120006,1.19977,90.6324
3.86,101.11,193.587,124.218,37.1046,-0.0647103,-2.63549,90.5897
3.88,101.103,194.329,124.96,37.1034,-0.0613344,0.168795,90.5473
3.9,101.096,195.071,125.702,37.1027,-0.0359971,1.26687,90.5052
3.92,101.09,195.813,126.444,37.1013,-0.0699553,-1.69791,90.4635
3.94,101.084,196.555,127.186,37.1006,-0.0359975,1.69789,90.4221
3.96,101.079,197.297,127.928,37.0992,-0.0665769,-1.52897,90.3811
3.98,101.074,198.039,128.67,37.0983,-0.0479969,0.929,90.3405
4,101.07,198.781,129.412,37.0968,-0.0751977,-1.36004,90.3004
4.02,101.067,199.522,130.154,37.0956,-0.0598223,0.768767,90.2607
4.04,101.064,200.264,130.895,37.0946,-0.0479949,0.591371,90.2214
4.06,101.061,201.006,131.637,37.0934,-0.0599963,-0.600068,90.1826
4.08,101.059,201.748,132.379,37.092,-0.068441,-0.422235,90.1443
4.1,101.057,202.49,133.121,37.0908,-0.0599962,0.422238,90.1065
4.12,101.056,203.232,133.863,37.0895,-0.0650627,-0.253324,90.0692
4.14,101.055,203.973,134.604,37.0883,-0.0599961,0.253332,90.0324
4.16,101.055,204.715,135.346,37.0869,-0.0736837,-0.684379,89.9962
4.18,101.055,205.457,136.088,37.0857,-0.0599959,0.684391,89.9605
4.2,101.056,206.199,136.83,37.0845,-0.0583065,0.0844699,89.9253
4.22,101.057,206.94,137.571,37.0828,-0.0839938,-1.28437,89.8908
4.24,101.059,207.682,138.313,37.082,-0.0429294,2.05322,89.8567
4.26,101.061,208.423,139.055,37.0803,-0.0839935,-2.05321,89.8233
4.28,101.064,209.165,139.796,37.079,-0.0635498,1.02218,89.7905
4.3,101.067,209.907,140.538,37.0778,-0.0599948,0.177752,89.7582
4.32,101.07,210.648,141.279,37.0761,-0.0839943,-1.19998,89.7266
4.34,101.074,211.39,142.021,37.0752,-0.0481714,1.79115,89.6955
4.36,101.078,212.131,142.762,37.0735,-0.0839938,-1.79112,89.6651
4.38,101.082,212.873,143.504,37.0723,-0.0599965,1.19986,89.6352
4.4,101.087,213.614,144.245,37.0709,-0.0687907,-0.439709,89.606
4.42,101.092,214.355,144.986,37.0695,-0.071995,-0.160216,89.5774
4.44,101.098,215.097,145.728,37.0682,-0.0654136,0.329073,89.5495
4.46,101.104,215.838,146.469,37.0667,-0.0719944,-0.329043,89.5222
4.48,101.11,216.579,147.21,37.0653,-0.0719952,-3.72007e-05,89.4955
4.5,101.117,217.319,147.951,37.0143,-2.54992,-123.896,89.4694
4.52,101.124,218.061,148.692,37.0626,2.41589,248.291,89.444
4.54,101.131,218.802,149.433,37.0612,-0.0719951,-124.394,89.4192
4.56,101.139,219.543,150.174,37.06,-0.0586574,0.666886,89.3951
4.58,101.147,220.284,150.916,37.0586,-0.0719945,-0.666855,89.3716
4.6,101.155,221.025,151.657,37.0569,-0.0839941,-0.599981,89.3488
4.62,101.164,221.766,152.398,37.056,-0.0432808,2.03567,89.3266
4.64,101.173,222.507,153.139,37.0543,-0.0839935,-2.03564,89.3051
4.66,101.182,223.248,153.88,37.0527,-0.0839939,-1.92145e-05,89.2843
4.68,101.191,223.989,154.621,37.0512,-0.0719951,0.599941,89.2641
4.7,101.201,224.73,155.362,37.0502,-0.051902,1.00466,89.2446
4.72,101.211,225.459,156.091,36.4478,-30.1172,-1503.27,89.2261
4.74,101.22,226.175,156.807,35.7951,-32.6381,-126.044,89.2085
4.76,101.23,226.875,157.507,34.9932,-40.0948,-372.834,89.192
4.78,101.24,227.56,158.192,34.2411,-37.6041,124.535,89.1764
4.8,101.25,228.23,158.862,33.5388,-35.1162,124.395,89.1618
4.82,101.259,228.886,159.518,32.7862,-37.628,-125.59,89.148
4.84,101.269,229.527,160.159,32.0351,-37.5553,3.63564,89.135
4.86,101.278,230.153,160.785,31.3325,-35.1296,121.285,89.1228
4.88,101.288,230.764,161.396,30.5312,-40.0648,-246.763,89.1115
4.9,101.297,231.36,161.993,29.8286,-35.131,246.69,89.101
4.92,101.306,231.942,162.574,29.0772,-37.5676,-121.829,89.0911
4.94,101.315,232.508,163.141,28.3259,-37.5674,0.0116164,89.0818
4.96,101.324,233.059,163.692,27.5738,-37.6031,-1.78731,89.0734
4.98,101.333,233.597,164.23,26.8727,-35.0552,127.396,89.0655
5,101.341,234.119,164.752,26.1208,-37.5953,-127.004,89.0581
5.02,101.35,234.626,165.258,25.3201,-40.0372,-122.094,89.0514
5.04,101.358,235.119,165.752,24.6681,-32.5978,371.967,89.0452
5.06,101.366,235.596,166.229,23.867,-40.0546,-372.837,89.0395
5.08,101.374,236.058,166.691,23.1159,-37.5546,125,89.0343
5.1,101.381,236.507,167.14,22.4143,-35.0844,123.506,89.0295
5.12,101.389,236.94,167.573,21.6638,-37.524,-121.976,89.0253
5.14,101.396,237.358,167.991,20.9125,-37.5622,-1.91275,89.0213
5.16,101.403,237.762,168.395,20.2112,-35.0669,124.765,89.0179
5.18,101.409,238.15,168.784,19.4102,-40.0476,-249.035,89.0146
5.2,101.416,238.524,169.158,18.7098,-35.0242,251.171,89.0119
5.22,101.422,238.884,169.517,17.9587,-37.5504,-126.31,89.0093
5.24,101.428,239.228,169.861,17.2079,-37.5425,0.394158,89.0071
5.26,101.434,239.557,170.19,16.4573,-37.53,0.624859,89.0052
5.28,101.439,239.872,170.505,15.7563,-35.0496,124.023,89.0034
5.3,101.444,240.172,170.806,15.0054,-37.543,-124.674,89.002
5.32,101.449,240.457,171.091,14.2553,-37.5065,1.82596,89.0007
5.34,101.454,240.727,171.361,13.5052,-37.5059,0.0304377,88.9995
5.36,101.458,240.982,171.616,12.7535,-37.5853,-3.96959,88.9987
5.38,101.463,241.223,171.857,12.0545,-34.9488,131.826,88.9979
5.4,101.467,241.448,172.082,11.2537,-40.0408,-254.6,88.9971
5.42,101.47,241.659,172.293,10.552,-35.0836,247.86,88.9967
5.44,101.474,241.856,172.49,9.85299,-34.9518,6.58807,88.9963
5.46,101.477,242.037,172.671,9.0522,-40.0394,-254.378,88.9959
5.48,101.48,242.204,172.838,8.35207,-35.0068,251.629,88.9956
5.5,101.482,242.355,172.989,7.55114,-40.0462,-251.973,88.9954
5.52,101.485,242.492,173.126,6.85188,-34.963,254.162,88.9953
5.54,101.487,242.614,173.248,6.10106,-37.5411,-128.906,88.9952
5.56,101.489,242.722,173.356,5.40093,-35.0067,126.722,88.9952
5.58,101.491,242.814,173.448,4.60133,-39.98,-248.663,88.9951
5.6,101.492,242.892,173.526,3.90056,-35.0383,247.082,88.995
5.62,101.493,242.955,173.589,3.1504,-37.5082,-123.493,88.995
5.64,101.494,243.003,173.637,2.40052,-37.4938,0.719139,88.995
5.66,101.494,243.037,173.671,1.70024,-35.014,123.988,88.9949
5.68,101.495,243.053,173.687,0.801561,-44.9339,-495.995,88.9949
