"time","x","y","position","velocity","acceleration","jerk","heading"
0,14.0318,23.6072,0,0,90,0,0
0.02,14.1659,23.6071,0.134164,1.8,90,0,0.000742541
0.04,14.3001,23.6071,0.268328,3.6,90,0,0.00148508
0.06,14.4343,23.6071,0.402492,5.4,90,0,0.00222762
0.08,14.5684,23.6072,0.536656,7.2,90,0,0.00297016
0.1,14.7026,23.6072,0.67082,9,90,0,0.0037127
0.12,14.8368,23.6072,0.804984,10.8,90,0,0.00445524
0.14,14.9709,23.6072,0.939149,12.6,90,0,0.00519778
0.16,15.2088,23.6072,1.17699,14.4,90,0,0.00742638
0.18,15.5327,23.6072,1.50089,16.2,90,0,0.0108884
0.2,15.8566,23.6073,1.82479,18,90,0,0.0143505
0.22,16.2256,23.6074,2.19378,19.8,90,0,0.0194071
0.24,16.6477,23.6075,2.6159,21.6,90,0,0.0263425
0.26,17.0769,23.6077,3.04509,23.4,90,0,0.0338557
0.28,17.5776,23.6081,3.5458,25.2,90,0,0.0472071
0.3,18.0846,23.6085,4.05279,27,90,0,0.0610022
0.32,18.6529,23.6092,4.62111,28.8,90,0,0.0791291
0.34,19.2413,23.6101,5.20954,30.6,90,0,0.0991829
0.36,19.87,23.6113,5.83818,32.4,90,0,0.12309
0.38,20.5394,23.6129,6.50763,34.2,90,0,0.153724
0.4,21.2372,23.615,7.20545,36,90,0,0.188545
0.42,21.9716,23.6176,7.93989,37.8,90,0,0.228141
0.44,22.7497,23.621,8.71796,39.6,90,0,0.2747
0.46,23.5603,23.6252,9.52856,41.4,90,0,0.329486
0.48,24.4053,23.6305,10.3736,43.2,90,0,0.392297
0.5,25.2858,23.637,11.2541,45,90,0,0.462661
0.52,26.2025,23.645,12.1708,46.8,88.2917,0,0.542397
0.54,27.1554,23.6548,13.1238,48.5748,70.0991,0,0.635682
0.56,28.1408,23.6665,14.1093,50,0,0,0.740045
0.58,29.1407,23.6804,15.1093,50,0,0,0.854235
0.6,30.1406,23.6964,16.1093,50,0,0,0.97937
0.62,31.1404,23.7146,17.1093,50,0,0,1.11616
0.64,32.1402,23.7353,18.1093,50,0,0,1.26242
0.66,33.1399,23.7586,19.1093,50,0,0,1.41895
0.68,34.1396,23.7848,20.1093,50,0,0,1.58866
0.7,35.1392,23.8141,21.1093,50,0,0,1.77101
0.72,36.1386,23.8466,22.1093,50,0,0,1.96457
0.74,37.138,23.8826,23.1093,50,0,0,2.16973
0.76,38.1372,23.9223,24.1093,50,0,0,2.38715
0.78,39.1363,23.966,25.1093,50,0,0,2.61946
0.8,40.1351,24.0137,26.1093,50,0,0,2.86361
0.82,41.1337,24.0659,27.1093,50,0,0,3.11915
0.84,42.1321,24.1225,28.1093,50,0,0,3.38566
0.86,43.1303,24.184,29.1093,50,0,0,3.66245
0.88,44.128,24.2503,30.1093,50,0,0,3.94855
0.9,45.1255,24.3217,31.1093,50,0,0,4.24278
0.92,46.1226,24.3983,32.1093,50,0,0,4.54328
0.94,47.1192,24.4801,33.1093,50,0,0,4.84713
0.96,48.1154,24.5673,34.1093,50,0,0,5.15186
0.98,49.1111,24.6597,35.1093,50,0,0,5.45468
1,50.1063,24.7574,36.1093,50,0,0,5.75254
1.02,51.101,24.8602,37.1093,50,0,0,6.0422
1.04,52.0952,24.9679,38.1093,50,0,0,6.32032
1.06,53.0889,25.0804,39.1093,50,0,0,6.5836
1.08,54.082,25.1972,40.1093,50,0,0,6.82888
1.1,55.0747,25.3182,41.1093,50,0,0,7.05325
1.12,56.0669,25.4428,42.1093,50,0,0,7.25418
1.14,57.0587,25.5707,43.1093,50,0,0,7.4296
1.16,58.0501,25.7014,44.1093,50,0,0,7.57794
1.18,59.0412,25.8344,45.1093,50,0,0,7.69813
1.2,60.0321,25.9692,46.1093,50,0,0,7.78917
1.22,61.0228,26.1053,47.1093,50,0,0,7.8496
1.24,62.0133,26.2423,48.1093,50,0,0,7.88167
1.26,63.0039,26.3796,49.1093,50,0,0,7.88632
1.28,63.9944,26.5167,50.1093,50,0,0,7.86475
1.3,64.9851,26.6533,51.1093,50,0,0,7.81844
1.32,65.9758,26.7888,52.1093,50,0,0,7.74897
1.34,66.9668,26.923,53.1093,50,0,0,7.65799
1.36,67.958,27.0553,54.1093,50,0,0,7.54702
1.38,68.9495,27.1856,55.1093,50,0,0,7.41629
1.4,69.9413,27.3135,56.1093,50,0,0,7.26676
1.42,70.9334,27.4386,57.1093,50,0,0,7.10239
1.44,71.9259,27.5608,58.1093,50,0,0,6.92452
1.46,72.9188,27.6797,59.1093,50,0,0,6.73428
1.48,73.9121,27.7953,60.1093,50,0,0,6.53195
1.5,74.9058,27.9072,61.1093,50,0,0,6.31653
1.52,75.9,28.0154,62.1093,50,0,0,6.09204
1.54,76.8945,28.1195,63.1093,50,0,0,5.85912
1.56,77.8895,28.2195,64.1093,50,0,0,5.61788
1.58,78.8849,28.3153,65.1093,50,0,0,5.3659
1.6,79.8807,28.4066,66.1093,50,0,0,5.10707
1.62,80.877,28.4933,67.1093,50,0,0,4.84151
1.64,81.8736,28.5754,68.1093,50,0,0,4.56779
1.66,82.8706,28.6526,69.1093,50,0,0,4.28548
1.68,83.868,28.7249,70.1093,50,0,0,3.99688
1.7,84.8657,28.792,71.1093,50,0,0,3.7012
1.72,85.8638,28.854,72.1093,50,0,0,3.39484
1.74,86.8622,28.9105,73.1093,50,0,0,3.08177
1.76,87.8609,28.9615,74.1093,50,0,0,2.76131
1.78,88.8599,29.0068,75.1093,50,0,0,2.42755
1.8,89.8591,29.0463,76.1093,50,0,0,2.08576
1.82,90.8585,29.0797,77.1093,50,0,0,1.73505
1.84,91.8582,29.1068,78.1093,50,0,0,1.3672
1.86,92.8579,29.1274,79.1093,50,0,0,0.989135
1.88,93.8578,29.1414,80.1093,50,0,0,0.598935
1.9,94.8578,29.1483,81.1093,50,0,0,0.199646
1.92,95.8578,29.1486,82.1093,50,0,0,-0.0874126
1.94,96.8578,29.1457,83.1093,50,0,0,-0.244734
1.96,97.8578,29.1401,84.1093,50,0,0,-0.391956
1.98,98.8578,29.1321,85.1093,50,0,0,-0.526812
2,99.8577,29.1217,86.1093,50,0,0,-0.651643
2.02,100.858,29.1093,87.1093,50,0,0,-0.766385
2.04,101.858,29.0949,88.1093,50,0,0,-0.870985
2.06,102.857,29.0789,89.1093,50,0,0,-0.965254
2.08,103.857,29.0613,90.1093,50,0,0,-1.04795
2.1,104.857,29.0423,91.1093,50,0,0,-1.11895
2.12,105.857,29.0222,92.1093,50,0,0,-1.17966
2.14,106.857,29.0011,93.1093,50,0,0,-1.23005
2.16,107.856,28.9793,94.1093,50,0,0,-1.27013
2.18,108.856,28.9568,95.1093,50,0,0,-1.29957
2.2,109.856,28.9339,96.1093,50,0,0,-1.31614
2.22,110.856,28.9109,97.1093,50,0,0,-1.32222
2.24,111.855,28.8878,98.1093,50,0,0,-1.31795
2.26,112.855,28.8648,99.1093,50,0,0,-1.30331
2.28,113.855,28.8423,100.109,50,0,0,-1.27813
2.3,114.855,28.8202,101.109,50,0,0,-1.2411
2.32,115.854,28.799,102.109,50,0,0,-1.19226
2.34,116.854,28.7786,103.109,50,0,0,-1.13297
2.36,117.854,28.7594,104.109,50,0,0,-1.0632
2.38,118.854,28.7415,105.109,50,0,0,-0.982908
2.4,119.854,28.7251,106.109,50,0,0,-0.891681
2.42,120.854,28.7104,107.109,50,0,0,-0.787156
2.44,121.853,28.6976,108.109,50,0,0,-0.671923
2.46,122.853,28.6869,109.109,50,0,0,-0.545905
2.48,123.853,28.6785,110.109,50,0,0,-0.409018
2.5,124.853,28.6726,111.109,50,0,0,-0.261002
2.52,125.853,28.6694,112.109,50,0,0,-0.100388
2.54,126.853,28.6692,113.109,50,0,0,0.0728849
2.56,127.853,28.672,114.109,50,0,0,0.257542
2.58,128.853,28.6781,115.109,50,0,0,0.453734
2.6,129.853,28.6878,116.109,50,0,0,0.661629
2.62,130.853,28.7012,117.109,50,0,0,0.881684
2.64,131.853,28.7186,118.109,50,0,0,1.11617
2.66,132.853,28.7402,119.109,50,0,0,1.36362
2.68,133.852,28.7662,120.109,50,0,0,1.62369
2.7,134.852,28.7968,121.109,50,0,0,1.89663
2.72,135.851,28.8324,122.109,50,0,0,2.18273
2.74,136.851,28.873,123.109,50,0,0,2.48257
2.76,137.85,28.919,124.109,50,0,0,2.79862
2.78,138.848,28.9707,125.109,50,0,0,3.12949
2.8,139.847,29.0282,126.109,50,0,0,3.47497
2.82,140.844,29.0919,127.109,50,0,0,3.83546
2.84,141.842,29.162,128.109,50,0,0,4.21139
2.86,142.839,29.2387,129.109,50,0,0,4.60329
2.88,143.836,29.3225,130.109,50,0,0,5.01247
2.9,144.831,29.4135,131.109,50,0,0,5.441
2.92,145.827,29.5122,132.109,50,0,0,5.8871
2.94,146.821,29.6187,133.109,50,0,0,6.35135
2.96,147.814,29.7334,134.109,50,0,0,6.83439
2.98,148.807,29.8566,135.109,50,0,0,7.33687
3,149.798,29.9888,136.109,50,0,0,7.8595
3.02,150.788,30.1301,137.109,50,0,0,8.40312
3.04,151.776,30.2811,138.109,50,0,0,8.96955
3.06,152.763,30.442,139.109,50,0,0,9.56038
3.08,153.748,30.6133,140.109,50,0,0,10.1746
3.1,154.732,30.7953,141.109,50,0,0,10.813
3.12,155.713,30.9885,142.109,50,0,0,11.4766
3.14,156.692,31.1932,143.109,50,0,0,12.1664
3.16,157.668,31.4099,144.109,50,0,0,12.8833
3.18,158.641,31.6391,145.109,50,0,0,13.6283
3.2,159.612,31.8812,146.109,50,0,0,14.4025
3.22,160.578,32.1366,147.109,50,0,0,15.207
3.24,161.542,32.4058,148.109,50,-1.69662,0,16.0427
3.26,162.5,32.6892,149.109,49.9661,-18.7612,0,16.9106
3.28,163.45,32.9862,150.105,49.5925,-45.0021,0,17.808
3.3,164.384,33.2942,151.087,48.6919,-42.9399,0,18.7275
3.32,165.296,33.6116,152.053,47.8318,-40.9823,0,19.6643
3.34,166.186,33.9382,153.002,47.0101,-39.0506,0,20.6178
3.36,167.056,34.2737,153.934,46.229,-37.1748,0,21.5886
3.38,167.905,34.6182,154.85,45.4853,-34.9369,0,22.5756
3.4,168.735,34.9717,155.752,44.7859,-34.7718,0,23.5784
3.42,169.546,35.3341,156.641,44.0906,-30.7768,0,24.6079
3.44,170.339,35.7056,157.516,43.4691,-29.9372,0,25.6385
3.46,171.114,36.086,158.38,42.8744,-29.4037,0,26.6843
3.48,171.872,36.4755,159.232,42.2759,-26.0025,0,27.7523
3.5,172.613,36.8738,160.073,41.7518,-24.931,0,28.8145
3.52,173.336,37.2806,160.903,41.2534,-25.02,0,29.9194
3.54,174.042,37.6958,161.722,40.753,-20.4328,0,31.0135
3.56,174.733,38.12,162.532,40.3364,-21.0554,0,32.1327
3.58,175.408,38.5535,163.335,39.9254,-19.8554,0,33.2625
3.6,176.069,38.9959,164.13,39.4948,-14.2,0,34.3932
3.62,176.714,39.4471,164.918,39.2288,-19.6269,0,35.55
3.64,177.344,39.9066,165.697,38.8393,-12.4598,0,36.7053
3.66,177.96,40.3755,166.472,38.571,-12.374,0,37.8736
3.68,178.563,40.8538,167.241,38.3453,-13.6163,0,39.0513
3.7,179.152,41.3416,168.005,38.0259,-5.99678,0,40.231
3.72,179.726,41.8377,168.764,37.9065,-9.75433,0,41.4237
3.74,180.288,42.3436,169.52,37.7189,-7.07135,0,42.6199
3.76,180.836,42.8592,170.273,37.5543,-4.01247,0,43.82
3.78,181.373,43.3845,171.024,37.4827,-5.21618,0,45.0242
3.8,181.896,43.9194,171.772,37.3764,-2.1073,0,46.2327
3.82,182.407,44.4643,172.519,37.3279,-0.492354,0,47.4426
3.84,182.906,45.0194,173.266,37.3139,0.579239,0,48.6534
3.86,183.393,45.5849,174.012,37.3169,1.86385,0,49.8644
3.88,183.868,46.1609,174.759,37.3535,3.98907,0,51.0766
3.9,184.332,46.7477,175.507,37.4287,5.47259,0,52.2839
3.92,184.784,47.3455,176.257,37.5329,6.62897,0,53.4899
3.94,185.225,47.9542,177.008,37.6582,7.76939,0,54.6976
3.96,185.655,48.5751,177.763,37.8128,11.2624,0,55.8888
3.98,186.074,49.2078,178.522,38.031,10.8959,0,57.0824
4,186.481,49.8523,179.285,38.2573,12.346,0,58.2692
4.02,186.878,50.5086,180.051,38.4615,18.9326,0,59.4428
4.04,187.264,51.1789,180.825,38.8486,12.5529,0,60.6169
4.06,187.64,51.8623,181.605,39.1081,20.57,0,61.7732
4.08,188.004,52.5589,182.391,39.4849,21.2537,0,62.9225
4.1,188.358,53.269,183.185,39.9552,16.7107,0,64.0647
4.12,188.701,53.9929,183.986,40.2091,34.1216,0,65.1886
4.14,189.035,54.7339,184.798,40.89,19.8367,0,66.3053
4.16,189.358,55.4899,185.62,41.3038,27.9593,0,67.4041
4.18,189.67,56.2609,186.452,41.8323,32.7765,0,68.4946
4.2,189.971,57.048,187.295,42.4992,31.1357,0,69.5737
4.22,190.262,57.8524,188.15,43.1113,34.6246,0,70.6319
4.24,190.542,58.6739,189.018,43.7965,37.0695,0,71.6738
4.26,190.813,59.5156,189.902,44.5368,39.6787,0,72.697
4.28,191.072,60.3766,190.802,45.3297,42.462,0,73.7029
4.3,191.322,61.2575,191.717,46.1775,45.4458,0,74.6912
4.32,191.56,62.1593,192.65,47.0848,48.6663,0,75.6612
4.34,191.788,63.0831,193.601,48.0565,52.1687,0,76.6125
4.36,192.005,64.03,194.573,49.0986,35.2937,0,77.5444
4.38,192.21,64.9974,195.562,49.81,9.45938,0,78.4527
4.4,192.402,65.9768,196.56,50,0,0,79.3289
4.42,192.58,66.9609,197.56,50,0,0,80.1654
4.44,192.744,67.9474,198.56,50,0,0,80.9608
4.46,192.894,68.936,199.56,50,0,0,81.7171
4.48,193.032,69.9265,200.56,50,0,0,82.436
4.5,193.158,70.9186,201.56,50,0,0,83.1183
4.52,193.272,71.912,202.56,50,0,0,83.7651
4.54,193.375,72.9067,203.56,50,0,0,84.3771
4.56,193.467,73.9024,204.56,50,0,0,84.9554
4.58,193.55,74.8989,205.56,50,0,0,85.5006
4.6,193.624,75.8962,206.56,50,0,0,86.0117
4.62,193.689,76.8941,207.56,50,-44.8044,0,86.4883
4.64,193.746,77.8833,208.551,49.1039,-85.5095,0,86.9288
4.66,193.794,78.8467,209.516,47.3952,-90,0,87.3289
4.68,193.835,79.7754,210.445,45.5952,-90,0,87.6882
4.7,193.868,80.6687,211.339,43.7952,-90,0,88.0101
4.72,193.895,81.5273,212.198,41.9952,-90,0,88.298
4.74,193.918,82.3524,213.023,40.1952,-90,0,88.5555
4.76,193.936,83.1342,213.805,38.3952,-90,0,88.7727
4.78,193.951,83.8803,214.552,36.5952,-90,0,88.9639
4.8,193.963,84.5948,215.266,34.7952,-90,0,89.134
4.82,193.972,85.2783,215.95,32.9952,-90,0,89.2846
4.84,193.979,85.911,216.583,31.1952,-90,0,89.4073
4.86,193.985,86.5193,217.191,29.3952,-90,0,89.5184
4.88,193.989,87.0876,217.759,27.5952,-90,0,89.6112
4.9,193.992,87.617,218.289,25.7952,-90,0,89.689
4.92,193.995,88.1177,218.789,23.9952,-90,0,89.756
4.94,193.996,88.5728,219.245,22.1952,-90,0,89.808
4.96,193.997,88.9949,219.667,20.3952,-90,0,89.8491
4.98,193.998,89.3964,220.068,18.5952,-90,0,89.8861
5,193.999,89.7203,220.392,16.7952,-90,0,89.9081
5.02,193.999,90.0442,220.716,14.9952,-90,0,89.93
5.04,194,90.3448,221.016,13.1952,-90,0,89.9498
5.06,194,90.479,221.151,11.3952,-90,0,89.9549
5.08,194,90.6131,221.285,9.59521,-90,0,89.9599
5.1,194,90.7473,221.419,7.79521,-90,0,89.9649
5.12,194,90.8815,221.553,5.99521,-90,0,89.9699
5.14,194,91.0156,221.687,4.19521,-90,0,89.975
5.16,194,91.1498,221.821,2.39521,-90,0,89.98
5.18,194,91.2839,221.956,0.595207,-90,0,89.985
