"time","x","y","position","velocity","acceleration","jerk","heading"
0,14.0318,36.6072,0,0,0,0,0
0.02,14.1657,36.6071,0.133944,6.69719,334.859,16743,0.000688961
0.04,14.2998,36.6071,0.267987,6.70218,0.249908,-16730.5,0.00137792
0.06,14.4338,36.6071,0.402031,6.70218,-5.67119e-07,-12.4954,0.00206688
0.08,14.5678,36.6072,0.535975,6.69719,-0.249907,-12.4953,0.00275584
0.1,14.7018,36.6072,0.670018,6.70218,0.249901,24.9904,0.00344481
0.12,14.8359,36.6072,0.804062,6.70218,5.67261e-06,-12.4948,0.00413377
0.14,14.9698,36.6072,0.938006,6.69718,-0.25,-12.5003,0.00482273
0.16,15.2072,36.6072,1.17544,11.8715,258.716,12948.3,0.00689444
0.18,15.5304,36.6072,1.49861,16.1585,214.349,-2218.34,0.0101139
0.2,15.8536,36.6073,1.82177,16.1585,7.26158e-05,-10717.4,0.0133333
0.22,16.2215,36.6074,2.18971,18.3966,111.907,5595.37,0.018038
0.24,16.6421,36.6075,2.61034,21.0318,131.757,992.49,0.0244928
0.26,17.0698,36.6077,3.03796,21.3806,17.443,-5715.71,0.0314889
0.28,17.5676,36.608,3.53583,24.8936,175.647,7910.2,0.0439555
0.3,18.0717,36.6084,4.0399,25.2038,15.5136,-8006.67,0.0568392
0.32,18.6362,36.6091,4.60436,28.2227,150.94,6771.34,0.0737959
0.34,19.2203,36.6099,5.1885,29.2071,49.221,-5085.97,0.0925672
0.36,19.8439,36.611,5.81212,31.1809,98.6923,2473.56,0.114968
0.38,20.5068,36.6125,6.47499,33.1436,98.1361,-27.8066,0.143743
0.4,21.1972,36.6143,7.16536,34.5186,68.7498,-1469.32,0.176489
0.42,21.9232,36.6168,7.89141,36.3022,89.1801,1021.51,0.213773
0.44,22.6912,36.62,8.65945,38.4022,104.998,790.92,0.257681
0.46,23.4901,36.6239,9.45831,39.943,77.0396,-1397.95,0.309467
0.48,24.3216,36.6287,10.2898,41.5759,81.6471,230.378,0.368946
0.5,25.1869,36.6347,11.1552,43.269,84.6537,150.331,0.435677
0.52,26.0865,36.6422,12.0548,44.9772,85.4078,37.703,0.511431
0.54,27.0192,36.6512,12.9875,46.6391,83.0953,-115.626,0.600296
0.56,27.982,36.662,13.9504,48.143,75.1981,-394.86,0.69991
0.58,28.9572,36.6748,14.9257,48.7655,31.1207,-2203.87,0.80911
0.6,29.9298,36.6896,15.8984,48.6349,-6.52681,-1882.38,0.929066
0.62,30.8999,36.7064,16.8686,48.5111,-6.19242,16.7193,1.06053
0.64,31.8677,36.7253,17.8367,48.4017,-5.46791,36.2257,1.20138
0.66,32.8333,36.7469,18.8024,48.2889,-5.63868,-8.53867,1.35242
0.68,33.7956,36.7709,19.7651,48.1331,-7.79364,-107.748,1.5166
0.7,34.7552,36.7977,20.7251,47.9982,-6.74515,52.4247,1.69345
0.72,35.7121,36.8275,21.6824,47.8649,-6.66216,4.14934,1.88158
0.74,36.6661,36.8604,22.637,47.7325,-6.61901,2.15738,2.08143
0.76,37.6172,36.8968,23.5888,47.5883,-7.2141,-29.7545,2.29371
0.78,38.5648,36.9365,24.5372,47.4231,-8.25712,-52.151,2.5212
0.8,39.5094,36.9801,25.4828,47.2792,-7.19615,53.0484,2.76087
0.82,40.4511,37.0274,26.4257,47.145,-6.71053,24.2813,3.01236
0.84,41.3901,37.079,27.3661,47.0171,-6.39601,15.7258,3.27531
0.86,42.3263,37.1348,28.304,46.8972,-5.99349,20.1262,3.54913
0.88,43.26,37.1949,29.2396,46.7785,-5.93327,3.01095,3.83296
0.9,44.1913,37.2597,30.1732,46.6792,-4.96701,48.3129,4.12573
0.92,45.1206,37.3292,31.1051,46.5957,-4.17382,39.6597,4.42575
0.94,46.0486,37.4035,32.036,46.5469,-2.43816,86.7828,4.73008
0.96,46.9758,37.4827,32.9666,46.527,-0.998892,71.9635,5.03634
0.98,47.9026,37.5668,33.8972,46.5345,0.376957,68.7925,5.34179
1,48.8299,37.6561,34.8288,46.5781,2.17911,90.1075,5.64342
1.02,49.7583,37.7502,35.762,46.6583,4.009,91.4945,5.938
1.04,50.6885,37.8494,36.6974,46.7726,5.71493,85.2968,6.2222
1.06,51.6214,37.9534,37.6361,46.9345,8.09477,118.992,6.49267
1.08,52.5576,38.0622,38.5786,47.1231,9.43048,66.7855,6.74618
1.1,53.4978,38.1754,39.5255,47.3485,11.2731,92.1322,6.97975
1.12,54.4427,38.293,40.4777,47.609,13.0248,87.5836,7.19075
1.14,55.3926,38.4145,41.4355,47.8867,13.8857,43.0437,7.37696
1.16,56.3482,38.5397,42.3992,48.1867,14.9973,55.5791,7.53668
1.18,57.3097,38.668,43.3692,48.5018,15.7554,37.9072,7.6687
1.2,58.2774,38.7994,44.3458,48.828,16.3097,27.7134,7.77195
1.22,59.2519,38.933,45.3294,49.1793,17.5658,62.8044,7.84463
1.24,60.2324,39.0687,46.3193,49.4938,15.7246,-92.0568,7.88894
1.26,61.2192,39.2056,47.3155,49.8105,15.8328,5.41112,7.90564
1.28,62.2118,39.3435,48.3177,50.1107,15.0146,-40.9106,7.89587
1.3,63.2103,39.4817,49.3257,50.3988,14.4048,-30.4899,7.86096
1.32,64.2141,39.6199,50.3389,50.6614,13.1301,-63.7371,7.80242
1.34,65.2231,39.7576,51.3572,50.9183,12.8431,-14.3485,7.72183
1.36,66.2368,39.8942,52.3802,51.1455,11.3617,-74.0695,7.62064
1.38,67.2555,40.0295,53.4078,51.3802,11.7352,18.6739,7.49902
1.4,68.2789,40.163,54.4398,51.6027,11.1237,-30.5751,7.35772
1.42,69.3061,40.2943,55.4754,51.7785,8.78664,-116.853,7.20083
1.44,70.3369,40.4231,56.5142,51.9425,8.20302,-29.1809,7.02968
1.46,71.3711,40.5489,57.5561,52.0917,7.46105,-37.0986,6.8454
1.48,72.4087,40.6717,58.6008,52.2385,7.33854,-6.12541,6.6482
1.5,73.4497,40.7911,59.6487,52.3935,7.74709,20.4277,6.43687
1.52,74.4935,40.907,60.6989,52.5095,5.80325,-97.192,6.21567
1.54,75.5399,41.0188,61.7512,52.6171,5.37821,-21.2523,5.98527
1.56,76.5886,41.1266,62.8055,52.714,4.84482,-26.6692,5.74576
1.58,77.6406,41.2302,63.8626,52.8529,6.94836,105.177,5.49434
1.6,78.6947,41.3292,64.9213,52.9374,4.22349,-136.243,5.23533
1.62,79.751,41.4235,65.9819,53.0271,4.48382,13.0163,4.9688
1.64,80.8097,41.5131,67.0444,53.125,4.89652,20.6352,4.69316
1.66,81.8711,41.5976,68.1091,53.2341,5.45637,27.9921,4.40789
1.68,82.9345,41.6769,69.1754,53.3193,4.25977,-59.8296,4.11558
1.7,84.0001,41.7508,70.2436,53.4062,4.34276,4.14931,3.81532
1.72,85.0687,41.8192,71.3143,53.5389,6.63357,114.541,3.50313
1.74,86.1394,41.8818,72.3869,53.6269,4.40017,-111.67,3.18346
1.76,87.2123,41.9385,73.4613,53.7194,4.62555,11.269,2.85556
1.78,88.2888,41.989,74.539,53.8877,8.41629,189.537,2.51287
1.8,89.3677,42.0331,75.6188,53.9899,5.1119,-165.219,2.16131
1.82,90.4491,42.0705,76.7008,54.0999,5.49684,19.2469,1.79991
1.84,91.5349,42.1011,77.7871,54.314,10.7066,260.49,1.41963
1.86,92.6235,42.1245,78.8759,54.4424,6.41956,-214.354,1.02818
1.88,93.7153,42.1402,79.9678,54.592,7.4789,52.967,0.623424
1.9,94.8093,42.1481,81.0619,54.7032,5.56012,-95.9386,0.208523
1.92,95.8762,42.1487,82.1288,53.3458,-67.8682,-3671.42,-0.0864023
1.94,96.9117,42.1456,83.1643,51.7768,-78.4527,-529.224,-0.243
1.96,97.9453,42.1399,84.1979,51.6781,-4.93257,3676.01,-0.390855
1.98,98.9766,42.1315,85.2292,51.5681,-5.49879,-28.3108,-0.528938
2,100.006,42.1208,86.2587,51.4712,-4.84526,32.6762,-0.658826
2.02,101.033,42.1079,87.2858,51.3584,-5.64072,-39.7728,-0.780421
2.04,102.059,42.0929,88.3116,51.2883,-3.50471,106.801,-0.893514
2.06,103.082,42.0759,89.3352,51.1805,-5.39069,-94.2991,-0.996966
2.08,104.103,42.0573,90.3565,51.0654,-5.75475,-18.2028,-1.09015
2.1,105.123,42.0372,91.3759,50.9686,-4.83851,45.8118,-1.17467
2.12,106.14,42.0155,92.3933,50.8713,-4.86922,-1.53528,-1.25047
2.14,107.154,41.9928,93.4077,50.7212,-7.50468,-131.773,-1.31734
2.16,108.167,41.969,94.4208,50.6553,-3.29137,210.666,-1.37389
2.18,109.177,41.9443,95.4316,50.5395,-5.79429,-125.146,-1.42013
2.2,110.185,41.9189,96.4394,50.3894,-7.50366,-85.4684,-1.45746
2.22,111.191,41.893,97.4462,50.3386,-2.54005,248.181,-1.48585
2.24,112.195,41.8667,98.4509,50.235,-5.18044,-132.019,-1.50505
2.26,113.196,41.8404,99.4521,50.0607,-8.71511,-176.734,-1.51328
2.28,114.196,41.8139,100.452,49.9969,-3.18835,276.338,-1.51146
2.3,115.193,41.7876,101.45,49.8936,-5.16366,-98.7655,-1.50056
2.32,116.188,41.7617,102.445,49.7402,-7.67405,-125.52,-1.48056
2.34,117.181,41.7362,103.438,49.6825,-2.88215,239.595,-1.45113
2.36,118.172,41.7115,104.429,49.549,-6.67455,-189.62,-1.41
2.38,119.159,41.6875,105.417,49.3881,-8.04493,-68.5189,-1.35918
2.4,120.146,41.6646,106.404,49.3316,-2.82374,261.06,-1.29907
2.42,121.13,41.6428,107.388,49.2243,-5.36603,-127.114,-1.22962
2.44,122.112,41.6224,108.37,49.1111,-5.6626,-14.8287,-1.15031
2.46,123.091,41.6035,109.35,48.9696,-7.07481,-70.6105,-1.05866
2.48,124.067,41.5863,110.326,48.8096,-7.99848,-46.1833,-0.957454
2.5,125.042,41.5708,111.301,48.7489,-3.03684,248.082,-0.846613
2.52,126.015,41.5575,112.274,48.6361,-5.64083,-130.199,-0.725971
2.54,126.985,41.5462,113.244,48.5124,-6.184,-27.1585,-0.594544
2.56,127.952,41.5374,114.211,48.3706,-7.08985,-45.2924,-0.450732
2.58,128.917,41.531,115.176,48.2549,-5.78207,65.3889,-0.296813
2.6,129.88,41.5274,116.139,48.1381,-5.84088,-2.94047,-0.132661
2.62,130.84,41.5265,117.1,48.0187,-5.96985,-6.44838,0.0419855
2.64,131.798,41.5287,118.057,47.885,-6.68716,-35.8658,0.228431
2.66,132.753,41.5341,119.012,47.7385,-7.32611,-31.9473,0.427852
2.68,133.705,41.543,119.964,47.6153,-6.15673,58.469,0.638246
2.7,134.655,41.5553,120.914,47.4906,-6.23397,-3.86223,0.859812
2.72,135.602,41.5713,121.861,47.3632,-6.37287,-6.94485,1.09287
2.74,136.546,41.5914,122.806,47.2223,-7.0456,-33.6362,1.33871
2.76,137.486,41.6154,123.746,47.0135,-10.4383,-169.637,1.599
2.78,138.424,41.6438,124.685,46.9309,-4.12867,315.483,1.87154
2.8,139.359,41.6766,125.62,46.7464,-9.2288,-255.006,2.15665
2.82,140.29,41.7141,126.552,46.6101,-6.8144,120.72,2.45462
2.84,141.219,41.7564,127.481,46.4669,-7.15787,-17.1731,2.76621
2.86,142.143,41.8035,128.407,46.2874,-8.97391,-90.802,3.09479
2.88,143.063,41.856,129.329,46.0918,-9.78358,-40.4835,3.43762
2.9,143.981,41.9139,130.248,45.9453,-7.32175,123.091,3.79497
2.92,144.894,41.9774,131.164,45.7968,-7.42676,-5.25026,4.16728
2.94,145.804,42.0466,132.076,45.5943,-10.1221,-134.765,4.55512
2.96,146.709,42.1219,132.984,45.4281,-8.31034,90.586,4.96006
2.98,147.609,42.2033,133.888,45.1896,-11.9269,-180.828,5.38438
3,148.504,42.2912,134.788,44.98,-10.4798,72.3564,5.82589
3.02,149.395,42.3856,135.683,44.7679,-10.6038,-6.20242,6.2852
3.04,150.281,42.4867,136.575,44.6031,-8.24334,118.024,6.76295
3.06,151.161,42.595,137.462,44.337,-13.3026,-252.963,7.25981
3.08,152.037,42.7104,138.345,44.1638,-8.66024,232.118,7.77684
3.1,152.905,42.8332,139.222,43.8612,-15.1315,-323.561,8.31724
3.12,153.768,42.9635,140.095,43.625,-11.8066,166.244,8.88015
3.14,154.624,43.1016,140.962,43.349,-13.803,-99.8206,9.46542
3.16,155.473,43.2478,141.823,43.0718,-13.8609,-2.89761,10.0739
3.18,156.316,43.4021,142.68,42.8405,-11.5644,114.828,10.7066
3.2,157.15,43.5648,143.53,42.5126,-16.3949,-241.528,11.3643
3.22,157.978,43.7361,144.376,42.2796,-11.6477,237.364,12.0482
3.24,158.797,43.9162,145.214,41.8985,-19.0547,-370.351,12.7594
3.26,159.607,44.1051,146.046,41.6022,-14.8163,211.919,13.5002
3.28,160.408,44.303,146.871,41.2518,-17.519,-135.137,14.2722
3.3,161.199,44.51,147.688,40.8771,-18.7358,-60.8394,15.0746
3.32,161.981,44.7264,148.499,40.5531,-16.2018,126.703,15.9085
3.34,162.752,44.9523,149.303,40.1902,-18.1439,-97.105,16.7747
3.36,163.509,45.1869,150.095,39.6096,-29.0304,-544.328,17.6714
3.38,164.246,45.428,150.871,38.7609,-42.4322,-670.09,18.5907
3.4,164.958,45.6739,151.624,37.6748,-54.3078,-593.782,19.5269
3.42,165.647,45.9245,152.357,36.6517,-51.1568,157.55,20.4796
3.44,166.311,46.179,153.069,35.5743,-53.8701,-135.661,21.45
3.46,166.953,46.4375,153.761,34.6178,-47.8203,302.486,22.437
3.48,167.574,46.7,154.435,33.6826,-46.7645,52.79,23.4401
3.5,168.174,46.9664,155.092,32.8564,-41.3071,272.872,24.459
3.52,168.755,47.2363,155.732,31.9987,-42.8875,-79.0189,25.4935
3.54,169.314,47.5096,156.355,31.1422,-42.8246,3.14259,26.5446
3.56,169.856,47.7861,156.962,30.3844,-37.8904,246.71,27.613
3.58,170.38,48.0661,157.557,29.7161,-33.4152,223.762,28.6968
3.6,170.887,48.35,158.138,29.0575,-32.9257,24.4741,29.7821
3.62,171.375,48.6352,158.703,28.2803,-38.862,-296.817,30.8933
3.64,171.849,48.9247,159.259,27.7612,-25.9535,645.429,32.0103
3.66,172.308,49.2176,159.803,27.2353,-26.2982,-17.2381,33.1386
3.68,172.751,49.5134,160.336,26.6386,-29.8314,-176.66,34.2826
3.7,173.182,49.8128,160.86,26.2056,-21.6524,408.948,35.431
3.72,173.597,50.1142,161.373,25.653,-27.63,-298.88,36.5962
3.74,174,50.4198,161.879,25.2942,-17.9384,484.584,37.7679
3.76,174.391,50.7295,162.378,24.9537,-17.0243,45.7032,38.9462
3.78,174.772,51.0428,162.871,24.6348,-15.9455,53.938,40.1338
3.8,175.139,51.3593,163.356,24.2512,-19.1803,-161.739,41.3288
3.82,175.498,51.6806,163.837,24.0673,-9.19655,499.189,42.5288
3.84,175.845,52.0066,164.314,23.8259,-12.0706,-143.704,43.7335
3.86,176.184,52.3376,164.787,23.6813,-7.22791,242.136,44.9426
3.88,176.513,52.6733,165.258,23.5145,-8.34162,-55.6858,46.1548
3.9,176.835,53.0149,165.727,23.4475,-3.34736,249.713,47.369
3.92,177.148,53.3626,166.195,23.4042,-2.169,58.9179,48.5846
3.94,177.454,53.7164,166.662,23.3768,-1.36719,40.0902,49.801
3.96,177.752,54.0779,167.131,23.4422,3.2699,231.855,51.0142
3.98,178.044,54.4463,167.601,23.507,3.23721,-1.6345,52.2282
4,178.329,54.8225,168.073,23.5958,4.44267,60.2732,53.4396
4.02,178.609,55.2081,168.55,23.819,11.1593,335.831,54.6421
4.04,178.882,55.6018,169.029,23.9559,6.8446,-215.735,55.8487
4.06,179.15,56.0067,169.514,24.2845,16.432,479.372,57.0418
4.08,179.413,56.4215,170.006,24.5575,13.6507,-139.066,58.2281
4.1,179.669,56.8445,170.5,24.723,8.27386,-268.843,59.42
4.12,179.923,57.2849,171.009,25.4271,35.2054,1346.58,60.5809
4.14,180.171,57.7347,171.522,25.6641,11.8495,-1167.8,61.7474
4.16,180.413,58.1975,172.044,26.1204,22.8148,548.263,62.902
4.18,180.651,58.6756,172.578,26.706,29.2801,323.268,64.0359
4.2,180.883,59.1645,173.119,27.053,17.3492,-596.546,65.179
4.22,181.113,59.6728,173.677,27.8928,41.992,1232.14,66.2962
4.24,181.336,60.1973,174.247,28.5085,30.7824,-560.484,67.3988
4.26,181.556,60.7384,174.831,29.191,34.1239,167.075,68.4878
4.28,181.769,61.2972,175.429,29.9122,36.0618,96.8959,69.5623
4.3,181.978,61.8745,176.044,30.702,39.4893,171.374,70.6216
4.32,182.183,62.4728,176.676,31.6189,45.8471,317.892,71.6636
4.34,182.382,63.0935,177.328,32.5905,48.5777,136.53,72.6863
4.36,182.576,63.7361,177.999,33.5592,48.4371,-7.03267,73.6913
4.38,182.765,64.4016,178.691,34.5933,51.7053,163.41,74.6782
4.4,182.948,65.0913,179.404,35.6763,54.147,122.085,75.6465
4.42,183.124,65.8066,180.141,36.8332,57.8465,184.975,76.5956
4.44,183.294,66.5488,180.902,38.0677,61.7266,194.007,77.525
4.46,183.457,67.3161,181.687,39.226,57.9155,-190.558,78.4305
4.48,183.612,68.1016,182.487,40.0284,40.1164,-889.953,79.303
4.5,183.756,68.8995,183.298,40.5406,25.6094,-725.35,80.1367
4.52,183.89,69.708,184.118,40.9815,22.0477,-178.085,80.9314
4.54,184.016,70.5269,184.946,41.4211,21.9802,-3.37355,81.6879
4.56,184.131,71.3557,185.783,41.8383,20.8571,-56.1543,82.4072
4.58,184.237,72.1946,186.629,42.2819,22.1831,66.3009,83.0874
4.6,184.336,73.0433,187.483,42.7196,21.8853,-14.8911,83.7293
4.62,184.425,73.9008,188.345,43.1059,19.3131,-128.613,84.3371
4.64,184.506,74.7666,189.215,43.4815,18.7811,-26.5982,84.9114
4.66,184.58,75.6406,190.092,43.8541,18.6279,-7.66119,85.4533
4.68,184.646,76.5224,190.976,44.2128,17.9368,-34.5535,85.9635
4.7,184.705,77.4119,191.868,44.5729,18.0045,3.38638,86.4418
4.72,184.756,78.3025,192.76,44.604,1.55342,-822.556,86.8828
4.74,184.801,79.1781,193.636,43.8372,-38.3389,-1994.62,87.2821
4.76,184.838,80.0284,194.488,42.5551,-64.1045,-1288.28,87.6413
4.78,184.87,80.8517,195.311,41.1955,-67.9793,-193.739,87.9638
4.8,184.896,81.6481,196.108,39.843,-67.6255,17.6876,88.2529
4.82,184.917,82.4161,196.877,38.4125,-71.5256,-195.002,88.5106
4.84,184.935,83.1502,197.611,36.7141,-84.9197,-669.706,88.7303
4.86,184.949,83.8561,198.317,35.3028,-70.566,717.685,88.9242
4.88,184.962,84.5354,198.996,33.9739,-66.4422,206.186,89.0967
4.9,184.97,85.1847,199.646,32.4672,-75.3369,-444.733,89.2475
4.92,184.978,85.7931,200.254,30.4231,-102.205,-1343.42,89.3735
4.94,184.984,86.3801,200.841,29.3514,-53.5857,2430.98,89.4881
4.96,184.988,86.9271,201.388,27.3513,-100.004,-2320.89,89.5824
4.98,184.991,87.4434,201.905,25.8149,-76.8196,1159.2,89.6631
5,184.994,87.9289,202.39,24.2742,-77.0342,-10.7331,89.7302
5.02,184.995,88.3779,202.839,22.4472,-91.3495,-715.762,89.7851
5.04,184.997,88.7902,203.251,20.6197,-91.3774,-1.39655,89.8279
5.06,184.998,89.1903,203.651,20.0029,-30.8407,3026.83,89.8682
5.08,184.999,89.5088,203.97,15.9273,-203.776,-8646.78,89.8918
5.1,184.999,89.8274,204.288,15.9261,-0.0605698,10185.8,89.9155
5.12,184.999,90.1377,204.599,15.5152,-20.5462,-1024.28,89.9384
5.14,185,90.2704,204.732,6.63825,-443.848,-21165.1,89.9443
5.16,185,90.4033,204.864,6.64193,0.183887,22201.6,89.9503
5.18,185,90.5361,204.997,6.64307,0.0567229,-6.35821,89.9562
5.2,185,90.6689,205.13,6.63693,-0.306723,-18.1723,89.9622
5.22,185,90.8017,205.263,6.64307,0.306723,30.6723,89.9681
5.24,185,90.9345,205.396,6.63693,-0.306723,-30.6723,89.9741
5.26,185,91.0673,205.528,6.64307,0.306723,30.6723,89.98
