"time","x","y","position","velocity","acceleration","jerk","heading"
0,0,-2.75,0,0,0,0,0
0.02,0.00860259,-2.75,0.00860259,0.43013,21.5065,1075.32,5.45335e-06
0.04,0.0296364,-2.75,0.0296364,1.05169,31.078,478.578,1.87871e-05
0.06,0.0666874,-2.75,0.0666874,1.85255,40.043,448.25,4.22745e-05
0.08,0.118433,-2.75,0.118433,2.58726,36.7354,-165.384,7.50767e-05
0.1,0.18504,-2.75,0.18504,3.33035,37.1546,20.9631,0.0001173
0.12,0.26643,-2.75,0.26643,4.06952,36.9586,-9.8003,0.000168895
0.14,0.362624,-2.75,0.362624,4.8097,37.0086,2.50008,0.000229875
0.16,0.473626,-2.75,0.473626,5.55012,37.0211,0.625006,0.000300241
0.18,0.59942,-2.75,0.59942,6.28969,36.9786,-2.12505,0.000379985
0.2,0.740028,-2.75,0.740028,7.03039,37.0351,2.82616,0.000585975
0.22,0.89545,-2.75,0.89545,7.77108,37.0344,-0.0356498,0.000891434
0.24,1.06567,-2.74999,1.06567,8.51095,36.9935,-2.04732,0.00122597
0.26,1.25068,-2.74999,1.25068,9.25037,36.971,-1.12502,0.00158958
0.28,1.45051,-2.74998,1.45051,9.99144,37.0535,4.12361,0.00219038
0.3,1.66514,-2.74997,1.66514,10.7317,37.0152,-1.91067,0.00291825
0.32,1.89458,-2.74996,1.89458,11.4719,37.006,-0.461299,0.0036963
0.34,2.13883,-2.74994,2.13883,12.2127,37.0392,1.65751,0.0048008
0.36,2.39789,-2.74992,2.39789,12.9531,37.0201,-0.953963,0.00607274
0.38,2.67176,-2.74989,2.67176,13.6935,37.0208,0.0340463,0.00751779
0.4,2.96045,-2.74984,2.96045,14.4345,37.0525,1.58437,0.00940002
0.42,3.26395,-2.74979,3.26395,15.1748,37.0122,-2.01356,0.0113838
0.44,3.58227,-2.74972,3.58227,15.9163,37.0758,3.17851,0.0139989
0.46,3.9154,-2.74963,3.9154,16.6566,37.0154,-3.01713,0.0167424
0.48,4.26337,-2.74952,4.26337,17.3984,37.0883,3.64378,0.0202216
0.5,4.62615,-2.74938,4.62615,18.139,37.0315,-2.83987,0.0239631
0.52,5.00377,-2.74921,5.00377,18.8808,37.0896,2.90607,0.0284512
0.54,5.39621,-2.749,5.39621,19.622,37.0626,-1.34871,0.033461
0.56,5.80348,-2.74874,5.80348,20.3635,37.0756,0.650063,0.0391007
0.58,6.22559,-2.74843,6.22559,21.1058,37.1113,1.78477,0.0456676
0.6,6.66254,-2.74806,6.66254,21.8474,37.0804,-1.54815,0.0529034
0.62,7.11433,-2.74761,7.11433,22.5896,37.1091,1.43536,0.061047
0.64,7.58098,-2.74707,7.58098,23.3323,37.139,1.49644,0.0703474
0.66,8.06247,-2.74644,8.06247,24.0747,37.1169,-1.10772,0.0806194
0.68,8.55881,-2.7457,8.55882,24.8173,37.1305,0.68299,0.0919761
0.7,9.07003,-2.74482,9.07003,25.5606,37.1655,1.74851,0.104708
0.72,9.59611,-2.74379,9.59611,26.3042,37.1797,0.708396,0.118932
0.74,10.1371,-2.7426,10.1371,27.0477,37.1743,-0.267526,0.134602
0.76,10.6929,-2.74121,10.6929,27.7915,37.1913,0.851344,0.151858
0.78,11.2636,-2.73961,11.2636,28.5357,37.2088,0.872196,0.170843
0.8,11.8492,-2.73776,11.8492,29.2802,37.2273,0.923739,0.191708
0.82,12.4497,-2.73563,12.4497,30.0251,37.2465,0.963906,0.21461
0.84,13.0651,-2.73319,13.0651,30.7705,37.2669,1.0171,0.239714
0.86,13.6954,-2.73041,13.6955,31.5164,37.295,1.40726,0.267249
0.88,14.3407,-2.72723,14.3407,32.2625,37.3057,0.532912,0.297297
0.9,15.0008,-2.72362,15.0009,33.009,37.3273,1.0818,0.33003
0.92,15.6758,-2.71952,15.6759,33.7511,37.1007,-11.3292,0.365633
0.94,16.3659,-2.71489,16.366,34.5038,37.6375,26.8368,0.4044
0.96,17.0709,-2.70966,17.071,35.252,37.409,-11.4214,0.446496
0.98,17.7909,-2.70377,17.791,36.0007,37.4344,1.27061,0.492115
1,18.5259,-2.69714,18.526,36.7499,37.4629,1.42338,0.541473
1.02,19.2683,-2.68979,19.2685,37.1235,18.676,-939.346,0.594245
1.04,20.011,-2.68173,20.0112,37.136,0.627296,-902.435,0.65001
1.06,20.7537,-2.67293,20.754,37.1388,0.137951,-24.4672,0.708833
1.08,21.4967,-2.66334,21.497,37.1517,0.649353,25.5701,0.770783
1.1,22.2397,-2.65293,22.2401,37.1551,0.16801,-24.0671,0.835986
1.12,22.9829,-2.64164,22.9834,37.1643,0.458857,14.5424,0.90475
1.14,23.7263,-2.62944,23.7269,37.173,0.437239,-1.08091,0.976859
1.16,24.4698,-2.61628,24.4705,37.182,0.449999,0.637991,1.05238
1.18,25.2135,-2.60212,25.2143,37.1913,0.465638,0.781953,1.1314
1.2,25.9573,-2.5869,25.9583,37.1959,0.226366,-11.9636,1.21396
1.22,26.7012,-2.57058,26.7024,37.2058,0.494519,13.4076,1.30016
1.24,27.4453,-2.55311,27.4467,37.2159,0.508543,0.701178,1.39006
1.26,28.1896,-2.53445,28.1912,37.2274,0.572441,3.19491,1.48413
1.28,28.934,-2.51453,28.9359,37.2334,0.299503,-13.6469,1.58211
1.3,29.6786,-2.49331,29.6808,37.2446,0.561692,13.1095,1.68403
1.32,30.4234,-2.47074,30.4259,37.2562,0.582101,1.02044,1.78998
1.34,31.1683,-2.44675,31.1712,37.2633,0.353438,-11.4331,1.90005
1.36,31.9134,-2.4213,31.9167,37.2758,0.621695,13.4128,2.0143
1.38,32.6585,-2.39432,32.6624,37.2837,0.397111,-11.2292,2.13284
1.4,33.4039,-2.36577,33.4083,37.2932,0.476225,3.95572,2.25622
1.42,34.1494,-2.33557,34.1544,37.3072,0.700548,11.2161,2.38411
1.44,34.8951,-2.30367,34.9008,37.3217,0.721685,1.05689,2.51656
1.46,35.6409,-2.27001,35.6474,37.3267,0.250555,-23.5565,2.65367
1.48,36.3869,-2.23452,36.3942,37.3423,0.779534,26.449,2.79554
1.5,37.133,-2.19714,37.1412,37.3485,0.310954,-23.429,2.94227
1.52,37.8792,-2.1578,37.8885,37.3659,0.868899,27.8973,3.09418
1.54,38.6257,-2.11643,38.6361,37.3794,0.675711,-9.65941,3.25156
1.56,39.3722,-2.07297,39.3838,37.3877,0.41586,-12.9925,3.41413
1.58,40.1188,-2.02733,40.1319,37.4018,0.705974,14.5057,3.58202
1.6,40.8656,-1.97946,40.8802,37.4167,0.744199,1.91123,3.75533
1.62,41.6126,-1.92928,41.6289,37.4324,0.787172,2.14865,3.93418
1.64,42.3595,-1.8767,42.3776,37.4396,0.355675,-21.5748,4.11888
1.66,43.1067,-1.82166,43.1268,37.4585,0.949831,29.7078,4.30995
1.68,43.854,-1.76406,43.8764,37.4772,0.933455,-0.818785,4.50697
1.7,44.6013,-1.70383,44.6261,37.487,0.489556,-22.195,4.71008
1.72,45.3486,-1.64089,45.3761,37.4979,0.54382,2.71321,4.91941
1.74,46.0961,-1.57515,46.1265,37.5199,1.10182,27.8999,5.13512
1.76,46.8437,-1.50652,46.8771,37.5345,0.729887,-18.5966,5.35786
1.78,47.5913,-1.4349,47.6282,37.5501,0.778721,2.44171,5.58767
1.8,48.339,-1.36021,48.3796,37.5713,1.05824,13.9757,5.82436
1.82,49.0866,-1.28236,49.1313,37.5838,0.628925,-21.4655,6.06807
1.84,49.8343,-1.20123,49.8833,37.603,0.960083,16.5579,6.31897
1.86,50.5819,-1.11675,50.6357,37.6197,0.834373,-6.28552,6.57763
1.88,51.3295,-1.02878,51.3885,37.639,0.965843,6.57352,6.84455
1.9,52.0771,-0.937249,52.1417,37.6585,0.97048,0.231866,7.11924
1.92,52.8247,-0.842024,52.8953,37.6799,1.07335,5.14329,7.4019
1.94,53.5721,-0.743011,53.6492,37.6983,0.920466,-7.64401,7.69271
1.96,54.3195,-0.640087,54.4036,37.7207,1.1171,9.83177,7.99261
1.98,55.0667,-0.533134,55.1584,37.74,0.967277,-7.49123,8.30168
2,55.8137,-0.422029,55.9136,37.7605,1.02413,2.84242,8.61959
2.02,56.5606,-0.306653,56.6694,37.7883,1.3915,18.3689,8.94653
2.04,57.3071,-0.186885,57.4255,37.8045,0.810211,-29.0646,9.28298
2.06,58.0535,-0.0625865,58.1822,37.836,1.57364,38.1714,9.63026
2.08,58.7996,0.0663833,58.9394,37.8577,1.08321,-24.5215,9.98735
2.1,59.5453,0.200145,59.6969,37.8774,0.985933,-4.86387,10.3545
2.12,60.2906,0.33885,60.455,37.9055,1.40473,20.94,10.732
2.14,61.0356,0.482647,61.2138,37.936,1.52812,6.16912,11.1218
2.16,61.78,0.631683,61.973,37.9615,1.27108,-12.8517,11.5225
2.18,62.524,0.7861,62.7328,37.9905,1.44928,8.90978,11.9343
2.2,63.2673,0.94606,63.4931,38.0151,1.23466,-10.7312,12.3581
2.22,64.01,1.11174,64.2541,38.0512,1.8033,28.4321,12.7951
2.24,64.7519,1.28328,65.0156,38.0738,1.12864,-33.7328,13.2442
2.26,65.4932,1.46085,65.7778,38.1104,1.83219,35.1774,13.7056
2.28,66.2335,1.64465,66.5406,38.1418,1.56784,-13.2173,14.1814
2.3,66.9729,1.83484,67.3041,38.171,1.45995,-5.39453,14.6708
2.32,67.7113,2.03158,68.0682,38.2085,1.87593,20.7987,15.1734
2.34,68.4485,2.23507,68.833,38.2403,1.58825,-14.3842,15.6908
2.36,69.1846,2.44552,69.5986,38.2793,1.94992,18.0837,16.2237
2.38,69.9194,2.66309,70.3649,38.3153,1.80406,-7.29292,16.7707
2.4,70.6526,2.88797,71.1319,38.3464,1.55489,-12.4583,17.3333
2.42,71.3844,3.1204,71.8997,38.3914,2.24866,34.6882,17.9127
2.44,72.1144,3.36054,72.6682,38.4246,1.65919,-29.4732,18.5073
2.46,72.8427,3.60861,73.4375,38.4682,2.17931,26.0058,19.1186
2.48,73.5691,3.86483,74.2078,38.5116,2.17296,-0.317308,19.7476
2.5,74.2931,4.12937,74.9787,38.5448,1.65529,-25.8839,20.3927
2.52,75.0151,4.40248,75.7506,38.5957,2.54676,44.5735,21.0562
2.54,75.7346,4.68435,76.5233,38.6348,1.95791,-29.4421,21.7376
2.56,76.4513,4.97517,77.2968,38.675,2.00763,2.4857,22.4357
2.58,77.1653,5.27521,78.0713,38.724,2.44757,21.9971,23.1544
2.6,77.8762,5.58461,78.8466,38.7653,2.0652,-19.1187,23.8904
2.62,78.5838,5.90362,79.6228,38.8105,2.26408,9.94435,24.6453
2.64,79.288,6.23244,80.3999,38.8585,2.39831,6.71135,25.4198
2.66,79.9884,6.57121,81.178,38.9023,2.1886,-10.4855,26.2118
2.68,80.6849,6.92023,81.957,38.9484,2.30799,5.96937,27.0252
2.7,81.377,7.27959,82.7369,38.9958,2.36874,3.03747,27.8561
2.72,82.0647,7.64951,83.5177,39.0424,2.32986,-1.94395,28.707
2.74,82.7475,8.03013,84.2994,39.0839,2.07563,-12.7113,29.5765
2.76,83.4251,8.42166,85.082,39.1294,2.27358,9.89761,30.4646
2.78,84.0973,8.82423,85.8656,39.179,2.48201,10.4212,31.3719
2.8,84.7637,9.23794,86.6499,39.2185,1.97549,-25.3257,32.2964
2.82,85.424,9.66295,87.4352,39.2622,2.18248,10.3494,33.24
2.84,86.0779,10.0993,88.2213,39.3064,2.21152,1.45174,34.1994
2.86,86.7249,10.5471,89.0082,39.3423,1.79521,-20.8153,35.1772
2.88,87.3648,11.0064,89.7958,39.382,1.98258,9.36847,36.1693
2.9,87.9972,11.4774,90.5843,39.4257,2.1854,10.1412,37.18
2.92,88.6216,11.9598,91.3734,39.4545,1.44166,-37.1873,38.2029
2.94,89.2378,12.4536,92.163,39.4822,1.38456,-2.85508,39.2376
2.96,89.8452,12.9591,92.9532,39.5096,1.36809,-0.823538,40.2841
2.98,90.4438,13.4759,93.7441,39.5448,1.76232,19.7117,41.3448
3,91.033,14.0042,94.5355,39.5669,1.10253,-32.9896,42.4139
3.02,91.6124,14.5436,95.3271,39.5821,0.761894,-17.0318,43.4906
3.04,92.1818,15.0941,96.1191,39.5985,0.818605,2.83558,44.5744
3.06,92.741,15.6556,96.9115,39.6212,1.13368,15.7536,45.6654
3.08,93.2894,16.2277,97.704,39.6266,0.274084,-42.9797,46.7597
3.1,93.8268,16.8103,98.4966,39.6295,0.142777,-6.56538,47.8564
3.12,94.3531,17.4031,99.2894,39.6361,0.332088,9.46557,48.9545
3.14,94.8678,18.0058,100.082,39.6303,-0.29145,-31.1769,50.0518
3.16,95.3709,18.6183,100.874,39.6269,-0.171587,5.99316,51.1468
3.18,95.8621,19.2401,101.667,39.6207,-0.308195,-6.83038,52.2386
3.2,96.3412,19.8709,102.459,39.6095,-0.560437,-12.6121,53.3257
3.22,96.808,20.5103,103.251,39.5842,-1.26297,-35.1267,54.4042
3.24,97.2627,21.1581,104.042,39.5691,-0.756569,25.3201,55.475
3.26,97.7049,21.814,104.833,39.5537,-0.769403,-0.641739,56.5384
3.28,98.1346,22.4774,105.624,39.5225,-1.55903,-39.4812,57.5894
3.3,98.5519,23.1481,106.413,39.4902,-1.61488,-2.79269,58.6276
3.32,98.9567,23.8255,107.203,39.4594,-1.5404,3.72412,59.6528
3.34,99.349,24.5095,107.991,39.4247,-1.73434,-9.69697,60.6631
3.36,99.729,25.1995,108.779,39.3853,-1.97128,-11.8473,61.6579
3.38,100.097,25.8953,109.566,39.349,-1.81519,7.80482,62.6365
3.4,100.452,26.5964,110.352,39.304,-2.24882,-21.6815,63.5972
3.42,100.795,27.3027,111.137,39.2635,-2.02855,11.0133,64.5412
3.44,101.127,28.0135,111.922,39.2164,-2.3532,-16.2322,65.4645
3.46,101.446,28.7288,112.705,39.1733,-2.15672,9.8238,66.3704
3.48,101.755,29.4481,113.487,39.1236,-2.48387,-16.3575,67.2555
3.5,102.051,30.1711,114.269,39.0764,-2.35857,6.26496,68.121
3.52,102.337,30.8977,115.05,39.0324,-2.20341,7.75808,68.9669
3.54,102.612,31.6273,115.829,38.9863,-2.30506,-5.08265,69.7908
3.56,102.875,32.3599,116.608,38.9174,-3.44159,-56.8265,70.5955
3.58,103.128,33.095,117.385,38.8766,-2.0397,70.0947,71.3786
3.6,103.371,33.8325,118.162,38.8343,-2.11812,-3.92133,72.1408
3.62,103.604,34.5723,118.937,38.7773,-2.84653,-36.4202,72.8837
3.64,103.828,35.314,119.712,38.7393,-1.90199,47.2271,73.6041
3.66,104.041,36.0576,120.486,38.675,-3.21293,-65.547,74.3046
3.68,104.246,36.8027,121.259,38.6366,-1.92094,64.5994,74.986
3.7,104.441,37.5491,122.03,38.5729,-3.18651,-63.2786,75.6451
3.72,104.629,38.2968,122.801,38.542,-1.54553,82.0488,76.2851
3.74,104.807,39.0457,123.571,38.4875,-2.72251,-58.8485,76.9064
3.76,104.977,39.7954,124.339,38.4412,-2.31747,20.252,77.5069
3.78,105.14,40.546,125.107,38.4019,-1.96226,17.7603,78.0881
3.8,105.294,41.2973,125.874,38.3497,-2.61373,-32.5737,78.6514
3.82,105.441,42.0491,126.641,38.3053,-2.21728,19.8228,79.1963
3.84,105.581,42.8014,127.406,38.2559,-2.47091,-12.6816,79.7213
3.86,105.714,43.5542,128.17,38.2251,-1.54156,46.4673,80.2291
3.88,105.84,44.3072,128.934,38.1742,-2.54388,-50.1159,80.7199
3.9,105.961,45.0605,129.696,38.1404,-1.6872,42.8339,81.1929
3.92,106.074,45.8137,130.458,38.088,-2.62053,-46.6664,81.6479
3.94,106.182,46.5671,131.219,38.0524,-1.78106,41.9733,82.0867
3.96,106.284,47.3206,131.98,38.0172,-1.75885,1.1105,82.5095
3.98,106.38,48.074,132.739,37.9762,-2.05068,-14.5915,82.9164
4,106.47,48.8271,133.498,37.9269,-2.46804,-20.868,83.3057
4.02,106.556,49.5803,134.256,37.9021,-1.23592,61.6063,83.6799
4.04,106.637,50.3331,135.013,37.8585,-2.18263,-47.3356,84.0391
4.06,106.714,51.0824,135.766,37.6593,-9.96057,-388.897,84.382
4.08,106.783,51.8171,136.504,36.8979,-38.0708,-1405.51,84.7039
4.1,106.849,52.5364,137.226,36.1163,-39.076,-50.258,85.0045
4.12,106.908,53.2404,137.933,35.3226,-39.6863,-30.5128,85.2862
4.14,106.964,53.929,138.624,34.5443,-38.9166,38.4833,85.5498
4.16,107.015,54.6023,139.299,33.7607,-39.1808,-13.2093,85.7962
4.18,107.061,55.2603,139.959,32.9836,-38.8523,16.4242,86.0262
4.2,107.105,55.9029,140.603,32.2028,-39.0417,-9.47126,86.2407
4.22,107.145,56.5303,141.231,31.4305,-38.6146,21.3574,86.4403
4.24,107.182,57.1423,141.844,30.6573,-38.6575,-2.14692,86.626
4.26,107.216,57.7389,142.442,29.88,-38.869,-10.5742,86.7984
4.28,107.248,58.3204,143.024,29.1186,-38.0705,39.9228,86.9584
4.3,107.277,58.8865,143.591,28.3432,-38.7656,-34.7515,87.1066
4.32,107.305,59.4373,144.143,27.5765,-38.3361,21.474,87.2433
4.34,107.329,59.973,144.679,26.8126,-38.1945,7.0794,87.3685
4.36,107.353,60.4934,145.2,26.0449,-38.3866,-9.60666,87.4839
4.38,107.375,60.9987,145.706,25.2871,-37.8882,24.9228,87.5902
4.4,107.395,61.4888,146.196,24.5258,-38.0679,-8.98384,87.6882
4.42,107.414,61.9636,146.671,23.7616,-38.2111,-7.16083,87.7767
4.44,107.431,62.4234,147.131,23.0035,-37.9003,15.5381,87.857
4.46,107.447,62.868,147.576,22.2469,-37.8348,3.27362,87.9309
4.48,107.462,63.2975,148.006,21.4883,-37.9296,-4.739,87.9976
4.5,107.477,63.712,148.421,20.7357,-37.6264,15.1603,88.0568
4.52,107.491,64.1113,148.82,19.9764,-37.9647,-16.9122,88.1113
4.54,107.503,64.4956,149.205,19.2239,-37.6272,16.8711,88.159
4.56,107.515,64.8649,149.574,18.4778,-37.3071,16.0059,88.2019
4.58,107.526,65.2191,149.929,17.7205,-37.8628,-27.7841,88.2402
4.6,107.536,65.5583,150.268,16.9668,-37.6829,8.99614,88.2733
4.62,107.546,65.8827,150.593,16.2243,-37.1291,27.6872,88.3031
4.64,107.555,66.1919,150.902,15.467,-37.8603,-36.5595,88.3283
4.66,107.563,66.4862,151.196,14.724,-37.1539,35.3192,88.3506
4.68,107.571,66.7657,151.476,13.9768,-37.3575,-10.1774,88.3698
4.7,107.579,67.0301,151.741,13.2287,-37.4039,-2.31896,88.3855
4.72,107.586,67.2797,151.99,12.4854,-37.1653,11.9301,88.4003
4.74,107.592,67.5143,152.225,11.7338,-37.5818,-20.8273,88.4107
4.76,107.598,67.7341,152.445,10.9914,-37.119,23.1392,88.42
4.78,107.604,67.9391,152.65,10.2555,-36.7953,16.1879,88.4288
4.8,107.609,68.129,152.84,9.50053,-37.7492,-47.6946,88.4339
4.82,107.614,68.3042,153.015,8.75937,-37.0581,34.5546,88.4384
4.84,107.618,68.4646,153.176,8.02258,-36.8398,10.9126,88.4426
4.86,107.622,68.61,153.321,7.27639,-37.3092,-23.4694,88.4462
4.88,107.626,68.7407,153.452,6.53594,-37.0225,14.335,88.4474
4.9,107.629,68.8564,153.568,5.78934,-37.3299,-15.3693,88.4484
4.92,107.632,68.9575,153.669,5.05415,-36.7599,28.5014,88.4492
4.94,107.634,69.0436,153.755,4.30808,-37.3033,-27.1721,88.45
4.96,107.636,69.115,153.826,3.57284,-36.762,27.0625,88.4506
4.98,107.637,69.1717,153.883,2.83164,-37.0599,-14.8943,88.4511
5,107.639,69.2135,153.925,2.09335,-36.9145,7.26959,88.4515
5.02,107.639,69.2401,153.951,1.33048,-38.1435,-61.4502,88.4517
5.04,107.64,69.2507,153.962,0.532593,-39.8944,-87.5404,88.4518
