"time","x","y","position","velocity","acceleration","jerk","heading"
0,14.0318,23.6072,0,0,90,0,0
0.02,14.1659,23.6071,0.134164,1.8,90,0,0.00157115
0.04,14.3001,23.6071,0.268328,3.6,90,0,0.00314229
0.06,14.4343,23.6071,0.402492,5.4,90,0,0.00471344
0.08,14.5684,23.6072,0.536656,7.2,90,0,0.00628459
0.1,14.7026,23.6072,0.67082,9,90,0,0.00785573
0.12,14.8368,23.6072,0.804984,10.8,90,0,0.00942688
0.14,14.9709,23.6072,0.939149,12.6,90,0,0.010998
0.16,15.2088,23.6072,1.17699,14.4,90,0,0.0156528
0.18,15.5327,23.6073,1.50089,16.2,90,0,0.022867
0.2,15.8566,23.6074,1.82479,18,90,0,0.0300812
0.22,16.2256,23.6076,2.19378,19.8,90,0,0.0405798
0.24,16.6477,23.608,2.6159,21.6,90,0,0.0549481
0.26,17.0769,23.6084,3.04509,23.4,90,0,0.0704573
0.28,17.5776,23.6091,3.5458,25.2,90,0,0.0974931
0.3,18.0846,23.6101,4.05279,27,90,0,0.125382
0.32,18.6529,23.6114,4.62111,28.8,90,0,0.161606
0.34,19.2413,23.6132,5.20954,30.6,90,0,0.201493
0.36,19.8699,23.6157,5.83818,32.4,90,0,0.248707
0.38,20.5394,23.6189,6.50763,34.2,90,0,0.308089
0.4,21.2372,23.623,7.20545,36,90,0,0.37498
0.42,21.9716,23.6282,7.93989,37.8,90,0,0.450341
0.44,22.7497,23.6349,8.71796,39.6,90,0,0.537878
0.46,23.5602,23.6432,9.52856,41.4,90,0,0.639062
0.48,24.4052,23.6534,10.3736,43.2,90,0,0.75339
0.5,25.2856,23.6658,11.2541,45,90,0,0.87992
0.52,26.2022,23.681,12.1708,46.8,88.2917,0,1.0212
0.54,27.155,23.6993,13.1238,48.5748,70.0991,0,1.1828
0.56,28.1402,23.7211,14.1093,50,0,0,1.36055
0.58,29.1399,23.7464,15.1093,50,0,0,1.5518
0.6,30.1395,23.7752,16.1093,50,0,0,1.75692
0.62,31.139,23.8077,17.1093,50,0,0,1.97597
0.64,32.1383,23.8441,18.1093,50,0,0,2.20582
0.66,33.1375,23.8847,19.1093,50,0,0,2.44697
0.68,34.1365,23.9296,20.1093,50,0,0,2.70186
0.7,35.1353,23.979,21.1093,50,0,0,2.96889
0.72,36.1338,24.0331,22.1093,50,0,0,3.24598
0.74,37.132,24.0922,23.1093,50,0,0,3.53282
0.76,38.13,24.1563,24.1093,50,0,0,3.82913
0.78,39.1276,24.2258,25.1093,50,0,0,4.13549
0.8,40.1248,24.3006,26.1093,50,0,0,4.44822
0.82,41.1215,24.3809,27.1093,50,0,0,4.76588
0.84,42.1178,24.4667,28.1093,50,0,0,5.08675
0.86,43.1136,24.5582,29.1093,50,0,0,5.40881
0.88,44.1089,24.6553,30.1093,50,0,0,5.72957
0.9,45.1036,24.7579,31.1093,50,0,0,6.04576
0.92,46.0978,24.8659,32.1093,50,0,0,6.35353
0.94,47.0913,24.9792,33.1093,50,0,0,6.64988
0.96,48.0843,25.0975,34.1093,50,0,0,6.93126
0.98,49.0767,25.2205,35.1093,50,0,0,7.19405
1,50.0686,25.348,36.1093,50,0,0,7.43458
1.02,51.0599,25.4794,37.1093,50,0,0,7.64937
1.04,52.0508,25.6142,38.1093,50,0,0,7.83519
1.06,53.0412,25.752,39.1093,50,0,0,7.9892
1.08,54.0313,25.8922,40.1093,50,0,0,8.10912
1.1,55.0212,26.0341,41.1093,50,0,0,8.1933
1.12,56.0109,26.1772,42.1093,50,0,0,8.24078
1.14,57.0006,26.3208,43.1093,50,0,0,8.25132
1.16,57.9902,26.4642,44.1093,50,0,0,8.22543
1.18,58.98,26.6068,45.1093,50,0,0,8.16398
1.2,59.97,26.748,46.1093,50,0,0,8.06678
1.22,60.9602,26.8873,47.1093,50,0,0,7.93844
1.24,61.9508,27.0242,48.1093,50,0,0,7.7817
1.26,62.9418,27.1581,49.1093,50,0,0,7.59957
1.28,63.9333,27.2887,50.1093,50,0,0,7.39513
1.3,64.9252,27.4156,51.1093,50,0,0,7.17152
1.32,65.9176,27.5384,52.1093,50,0,0,6.93176
1.34,66.9106,27.657,53.1093,50,0,0,6.67871
1.36,67.904,27.771,54.1093,50,0,0,6.41493
1.38,68.898,27.8804,55.1093,50,0,0,6.14223
1.4,69.8925,27.985,56.1093,50,0,0,5.86389
1.42,70.8876,28.0847,57.1093,50,0,0,5.58237
1.44,71.883,28.1795,58.1093,50,0,0,5.29922
1.46,72.879,28.2694,59.1093,50,0,0,5.0158
1.48,73.8754,28.3544,60.1093,50,0,0,4.73353
1.5,74.8722,28.4345,61.1093,50,0,0,4.45419
1.52,75.8693,28.5097,62.1093,50,0,0,4.17817
1.54,76.8668,28.5802,63.1093,50,0,0,3.90594
1.56,77.8647,28.646,64.1093,50,0,0,3.6383
1.58,78.8628,28.7071,65.1093,50,0,0,3.37755
1.6,79.8612,28.7638,66.1093,50,0,0,3.12199
1.62,80.8598,28.816,67.1093,50,0,0,2.8718
1.64,81.8587,28.864,68.1093,50,0,0,2.62855
1.66,82.8577,28.9077,69.1093,50,0,0,2.39267
1.68,83.8569,28.9474,70.1093,50,0,0,2.16229
1.7,84.8563,28.9832,71.1093,50,0,0,1.93815
1.72,85.8558,29.0151,72.1093,50,0,0,1.72283
1.74,86.8554,29.0433,73.1093,50,0,0,1.5128
1.76,87.8551,29.0679,74.1093,50,0,0,1.30843
1.78,88.8549,29.089,75.1093,50,0,0,1.11344
1.8,89.8547,29.1067,76.1093,50,0,0,0.923436
1.82,90.8546,29.1212,77.1093,50,0,0,0.738869
1.84,91.8545,29.1325,78.1093,50,0,0,0.563589
1.86,92.8545,29.1408,79.1093,50,0,0,0.393093
1.88,93.8545,29.1462,80.1093,50,0,0,0.228158
1.9,94.8545,29.1488,81.1093,50,0,0,0.0770384
1.92,95.8545,29.1489,82.1093,50,0,0,-0.0221951
1.94,96.8545,29.1481,83.1093,50,0,0,-0.0566659
1.96,97.8545,29.147,84.1093,50,0,0,-0.0678875
1.98,98.8545,29.1458,85.1093,50,0,0,-0.0542803
2,99.8545,29.1451,86.1093,50,0,0,-0.0206078
2.02,100.854,29.1451,87.1093,50,0,0,0.0329022
2.04,101.854,29.1462,88.1093,50,0,0,0.106222
2.06,102.854,29.1488,89.1093,50,0,0,0.20089
2.08,103.854,29.1532,90.1093,50,0,0,0.318889
2.1,104.854,29.1599,91.1093,50,0,0,0.455937
2.12,105.854,29.1691,92.1093,50,0,0,0.611991
2.14,106.854,29.1812,93.1093,50,0,0,0.787062
2.16,107.854,29.1966,94.1093,50,0,0,0.981934
2.18,108.854,29.2156,95.1093,50,0,0,1.2006
2.2,109.854,29.2385,96.1093,50,0,0,1.43825
2.22,110.853,29.2657,97.1093,50,0,0,1.69501
2.24,111.853,29.2976,98.1093,50,0,0,1.97101
2.26,112.852,29.3345,99.1093,50,0,0,2.26668
2.28,113.851,29.3768,100.109,50,0,0,2.58444
2.3,114.85,29.4247,101.109,50,0,0,2.92429
2.32,115.849,29.4788,102.109,50,0,0,3.2841
2.34,116.847,29.5393,103.109,50,0,0,3.66414
2.36,117.845,29.6065,104.109,50,0,0,4.06469
2.38,118.842,29.681,105.109,50,0,0,4.48622
2.4,119.838,29.763,106.109,50,0,0,4.93039
2.42,120.834,29.853,107.109,50,0,0,5.3989
2.44,121.83,29.9512,108.109,50,0,0,5.88918
2.46,122.824,30.0581,109.109,50,0,0,6.40163
2.48,123.817,30.1742,110.109,50,0,0,6.93662
2.5,124.809,30.2996,111.109,50,0,0,7.49454
2.52,125.8,30.435,112.109,50,0,0,8.07582
2.54,126.789,30.5806,113.109,50,0,0,8.68112
2.56,127.777,30.737,114.109,50,0,0,9.313
2.58,128.763,30.9044,115.109,50,0,0,9.97011
2.6,129.747,31.0832,116.109,50,0,0,10.652
2.62,130.728,31.274,117.109,50,0,0,11.3591
2.64,131.707,31.4771,118.109,50,0,0,12.0916
2.66,132.684,31.6929,119.109,50,0,0,12.8499
2.68,133.657,31.9219,120.109,50,0,0,13.6342
2.7,134.628,32.1643,121.109,50,0,0,14.4448
2.72,135.594,32.4207,122.109,50,0,0,15.2819
2.74,136.557,32.6915,123.109,50,-3.46148,0,16.1455
2.76,137.514,32.9767,124.109,49.9308,-31.8741,0,17.0351
2.78,138.461,33.2749,125.101,49.2935,-33.2792,0,17.9446
2.8,139.39,33.584,126.08,48.6272,-31.2173,0,18.8679
2.82,140.302,33.904,127.047,48.0015,-29.2253,0,19.8042
2.84,141.197,34.2347,128.001,47.4152,-27.2973,0,20.7522
2.86,142.076,34.576,128.944,46.8692,-25.4504,0,21.7121
2.88,142.939,34.928,129.876,46.36,-23.6713,0,22.6828
2.9,143.787,35.2908,130.798,45.8863,-21.9521,0,23.6637
2.92,144.62,35.6645,131.711,45.4466,-20.2859,0,24.6544
2.94,145.439,36.0489,132.616,45.0398,-18.3234,0,25.6542
2.96,146.244,36.4443,133.513,44.6714,-17.9544,0,26.6626
2.98,147.036,36.8506,134.402,44.3135,-15.3803,0,27.6818
3,147.814,37.2678,135.286,43.9941,-12.4703,0,28.7082
3.02,148.58,37.6961,136.163,43.7561,-15.2154,0,29.7356
3.04,149.334,38.1356,137.036,43.4308,-8.17759,0,30.7759
3.06,150.074,38.5858,137.903,43.2702,-11.6562,0,31.8149
3.08,150.803,39.0472,138.765,43.0382,-7.41505,0,32.8654
3.1,151.521,39.52,139.625,42.8854,-7.03738,0,33.9164
3.12,152.227,40.0043,140.481,42.7467,-5.8283,0,34.9723
3.14,152.922,40.5001,141.335,42.6234,-3.75838,0,36.0319
3.16,153.606,41.0074,142.186,42.5476,-3.18572,0,37.0921
3.18,154.28,41.5265,143.037,42.4778,-1.39393,0,38.1566
3.2,154.943,42.0574,143.886,42.4488,-0.0866766,0,39.2205
3.22,155.595,42.6002,144.735,42.4465,0.989125,0,40.2853
3.24,156.238,43.1553,145.584,42.4651,2.44019,0,41.3507
3.26,156.871,43.7226,146.434,42.511,3.83285,0,42.4142
3.28,157.493,44.3024,147.285,42.585,4.94552,0,43.4765
3.3,158.107,44.8947,148.137,42.6809,6.15358,0,44.5386
3.32,158.71,45.4997,148.992,42.797,8.32616,0,45.5933
3.34,159.305,46.1181,149.85,42.9635,8.01332,0,46.6509
3.36,159.89,46.7497,150.711,43.1239,11.0842,0,47.6981
3.38,160.466,47.3947,151.576,43.3415,10.937,0,48.7452
3.4,161.033,48.0532,152.445,43.5635,12.8215,0,49.7852
3.42,161.591,48.7255,153.319,43.8091,15.152,0,50.8188
3.44,162.14,49.4119,154.198,44.1201,13.5101,0,51.8503
3.46,162.68,50.1126,155.082,44.3775,18.3231,0,52.868
3.48,163.212,50.8277,155.973,44.7451,17.7384,0,53.8895
3.5,163.735,51.5585,156.872,45.0999,19.4152,0,54.8962
3.52,164.25,52.3044,157.778,45.4876,20.839,0,55.8943
3.54,164.756,53.0657,158.692,45.9037,22.2236,0,56.8837
3.56,165.253,53.8428,159.615,46.3474,23.6273,0,57.8641
3.58,165.742,54.636,160.547,46.819,25.0525,0,58.8349
3.6,166.222,55.4456,161.488,47.3191,26.5021,0,59.7958
3.62,166.694,56.272,162.44,47.8482,27.9792,0,60.7464
3.64,167.157,57.1156,163.402,48.407,29.4756,0,61.6863
3.66,167.612,57.9768,164.376,48.9959,30.5084,0,62.6153
3.68,168.059,58.8559,165.362,49.606,19.5764,0,63.5325
3.7,168.495,59.751,166.358,50,0,0,64.435
3.72,168.92,60.6564,167.358,50,0,0,65.3175
3.74,169.33,61.5682,168.358,50,0,0,66.1766
3.76,169.728,62.486,169.358,50,0,0,67.0123
3.78,170.111,63.4093,170.358,50,0,0,67.8249
3.8,170.482,64.338,171.358,50,0,0,68.6149
3.82,170.841,65.2716,172.358,50,0,0,69.3825
3.84,171.187,66.2099,173.358,50,0,0,70.128
3.86,171.52,67.1525,174.358,50,0,0,70.852
3.88,171.843,68.0992,175.358,50,0,0,71.5548
3.9,172.153,69.0497,176.358,50,0,0,72.2368
3.92,172.453,70.0038,177.358,50,0,0,72.8985
3.94,172.741,70.9612,178.358,50,0,0,73.5404
3.96,173.019,71.9218,179.358,50,0,0,74.1619
3.98,173.287,72.8853,180.358,50,0,0,74.7627
4,173.545,73.8515,181.358,50,0,0,75.345
4.02,173.793,74.8202,182.358,50,0,0,75.9092
4.04,174.032,75.7913,183.358,50,0,0,76.4557
4.06,174.261,76.7645,184.358,50,0,0,76.985
4.08,174.482,77.7399,185.358,50,0,0,77.4974
4.1,174.694,78.7171,186.358,50,0,0,77.9933
4.12,174.898,79.6961,187.358,50,0,0,78.4724
4.14,175.094,80.6767,188.358,50,0,0,78.9341
4.16,175.282,81.6589,189.358,50,0,0,79.38
4.18,175.463,82.6425,190.358,50,0,0,79.811
4.2,175.636,83.6273,191.358,50,0,0,80.2274
4.22,175.802,84.6134,192.358,50,0,0,80.6295
4.24,175.961,85.6007,193.358,50,0,0,81.0176
4.26,176.114,86.5889,194.358,50,0,0,81.3907
4.28,176.261,87.5781,195.358,50,0,0,81.7486
4.3,176.401,88.5682,196.358,50,0,0,82.0933
4.32,176.536,89.5591,197.358,50,0,0,82.4251
4.34,176.665,90.5507,198.358,50,0,0,82.7443
4.36,176.788,91.5431,199.358,50,0,0,83.0509
4.38,176.907,92.536,200.358,50,0,0,83.344
4.4,177.02,93.5296,201.358,50,0,0,83.6232
4.42,177.129,94.5237,202.358,50,0,0,83.8906
4.44,177.233,95.5182,203.358,50,0,0,84.1463
4.46,177.333,96.5132,204.358,50,0,0,84.3904
4.48,177.428,97.5086,205.358,50,0,0,84.6225
4.5,177.52,98.5044,206.358,50,0,0,84.8415
4.52,177.608,99.5005,207.358,50,0,0,85.0485
4.54,177.693,100.497,208.358,50,0,0,85.2443
4.56,177.774,101.494,209.358,50,-28.6474,0,85.4292
4.58,177.852,102.485,210.352,49.4271,-83.5227,0,85.6019
4.6,177.925,103.454,211.324,47.7587,-90,0,85.7589
4.62,177.993,104.389,212.261,45.9587,-90,0,85.8993
4.64,178.056,105.288,213.163,44.1587,-90,0,86.0256
4.66,178.116,106.154,214.031,42.3587,-90,0,86.1392
4.68,178.171,106.979,214.858,40.5587,-90,0,86.2388
4.7,178.222,107.767,215.648,38.7587,-90,0,86.3266
4.72,178.27,108.521,216.403,36.9587,-90,0,86.4037
4.74,178.315,109.245,217.128,35.1587,-90,0,86.4715
4.76,178.356,109.927,217.812,33.3587,-90,0,86.5295
4.78,178.395,110.57,218.456,31.5587,-90,0,86.5791
4.8,178.432,111.189,219.076,29.7587,-90,0,86.6242
4.82,178.465,111.757,219.645,27.9587,-90,0,86.6601
4.84,178.496,112.299,220.188,26.1587,-90,0,86.6923
4.86,178.525,112.799,220.688,24.3587,-90,0,86.7182
4.88,178.552,113.269,221.159,22.5587,-90,0,86.7403
4.9,178.576,113.69,221.581,20.7587,-90,0,86.7562
4.92,178.6,114.111,222.003,18.9587,-90,0,86.7721
4.94,178.618,114.434,222.327,17.1587,-90,0,86.7807
4.96,178.636,114.758,222.65,15.3587,-90,0,86.7893
4.98,178.654,115.081,222.974,13.5587,-90,0,86.798
5,178.662,115.23,223.124,11.7587,-90,0,86.8006
5.02,178.67,115.364,223.258,9.95874,-90,0,86.8027
5.04,178.677,115.498,223.392,8.15874,-90,0,86.8048
5.06,178.685,115.632,223.526,6.35874,-90,0,86.8069
5.08,178.692,115.766,223.66,4.55874,-90,0,86.8089
5.1,178.7,115.9,223.794,2.75874,-90,0,86.811
5.12,178.707,116.034,223.929,0.95874,-90,0,86.8131
