"time","x","y","position","velocity","acceleration","jerk","heading"
0,104.891,69.3306,0,0,37,0,88.4518
0.02,104.891,69.3392,0.00860233,0.74,37,0,88.4518
0.04,104.892,69.3602,0.0296355,1.48,37,0,88.4518
0.06,104.893,69.3973,0.0666854,2.22,37,0,88.4518
0.08,104.894,69.449,0.118429,2.96,37,0,88.4519
0.1,104.896,69.5156,0.185034,3.7,37,0,88.4519
0.12,104.898,69.5969,0.266422,4.44,37,0,88.452
0.14,104.901,69.6931,0.362613,5.18,37,0,88.4521
0.16,104.904,69.804,0.473612,5.92,37,0,88.4521
0.18,104.907,69.9298,0.599402,6.66,37,0,88.4522
0.2,104.911,70.0703,0.74,7.4,37,0,88.4523
0.22,104.915,70.2257,0.895407,8.14,37,0,88.4525
0.24,104.92,70.3958,1.06561,8.88,37,0,88.4529
0.26,104.925,70.5807,1.2506,9.62,37,0,88.4533
0.28,104.93,70.7805,1.4504,10.36,37,0,88.4537
0.3,104.936,70.995,1.665,11.1,37,0,88.4542
0.32,104.942,71.2243,1.8944,11.84,37,0,88.455
0.34,104.949,71.4684,2.1386,12.58,37,0,88.4558
0.36,104.956,71.7273,2.3976,13.32,37,0,88.4567
0.38,104.963,72.001,2.6714,14.06,37,0,88.4579
0.4,104.971,72.2895,2.96,14.8,37,0,88.4593
0.42,104.979,72.5928,3.2634,15.54,37,0,88.4607
0.44,104.988,72.9109,3.5816,16.28,37,0,88.4627
0.46,104.996,73.2438,3.9146,17.02,37,0,88.4647
0.48,105.006,73.5915,4.2624,17.76,37,0,88.467
0.5,105.015,73.9539,4.625,18.5,37,0,88.4697
0.52,105.026,74.3312,5.0024,19.24,37,0,88.4726
0.54,105.036,74.7233,5.3946,19.98,37,0,88.4759
0.56,105.047,75.1301,5.8016,20.72,37,0,88.4795
0.58,105.058,75.5518,6.2234,21.46,37,0,88.4837
0.6,105.07,75.9882,6.66,22.2,37,0,88.4881
0.62,105.081,76.4395,7.1114,22.94,37,0,88.4931
0.64,105.094,76.9055,7.5776,23.68,37,0,88.4985
0.66,105.106,77.3863,8.0586,24.42,37,0,88.5044
0.68,105.119,77.882,8.5544,25.16,37,0,88.5109
0.7,105.132,78.3924,9.065,25.9,37,0,88.5179
0.72,105.146,78.9176,9.5904,26.64,37,0,88.5255
0.74,105.16,79.4576,10.1306,27.38,37,0,88.5338
0.76,105.174,80.0125,10.6856,28.12,37,0,88.5427
0.78,105.188,80.5821,11.2554,28.86,37,0,88.5522
0.8,105.203,81.1665,11.84,29.6,37,0,88.5626
0.82,105.218,81.7657,12.4394,30.34,37,0,88.5736
0.84,105.233,82.3797,13.0536,31.08,37,0,88.5854
0.86,105.249,83.0085,13.6826,31.82,37,0,88.5981
0.88,105.264,83.6521,14.3264,32.56,37,0,88.6116
0.9,105.28,84.3105,14.985,33.3,37,0,88.6261
0.92,105.296,84.9837,15.6584,34.04,37,0,88.6414
0.94,105.313,85.6718,16.3466,34.78,37,0,88.6577
0.96,105.329,86.3746,17.0496,35.52,37,0,88.6749
0.98,105.345,87.0922,17.7674,36.26,37,0,88.6933
1,105.362,87.8246,18.5,37,1.27654e-09,0,88.7126
1.02,105.379,88.5644,19.24,37,0,0,88.733
1.04,105.395,89.3042,19.98,37,0,0,88.7541
1.06,105.411,90.0441,20.72,37,0,0,88.7758
1.08,105.426,90.7839,21.46,37,0,0,88.7983
1.1,105.442,91.5237,22.2,37,0,0,88.8215
1.12,105.457,92.2636,22.94,37,0,0,88.8454
1.14,105.472,93.0034,23.68,37,0,0,88.87
1.16,105.486,93.7433,24.42,37,0,0,88.8953
1.18,105.5,94.4831,25.16,37,0,0,88.9213
1.2,105.514,95.223,25.9,37,0,0,88.948
1.22,105.527,95.9629,26.64,37,0,0,88.9754
1.24,105.54,96.7028,27.38,37,0,0,89.0035
1.26,105.553,97.4427,28.12,37,0,0,89.0323
1.28,105.565,98.1826,28.86,37,0,0,89.0618
1.3,105.577,98.9225,29.6,37,0,0,89.092
1.32,105.589,99.6624,30.34,37,0,0,89.1228
1.34,105.6,100.402,31.08,37,0,0,89.1544
1.36,105.611,101.142,31.82,37,0,0,89.1866
1.38,105.621,101.882,32.56,37,0,0,89.2196
1.4,105.631,102.622,33.3,37,0,0,89.2532
1.42,105.64,103.362,34.04,37,0,0,89.2875
1.44,105.649,104.102,34.78,37,0,0,89.3224
1.46,105.658,104.842,35.52,37,0,0,89.3581
1.48,105.666,105.582,36.26,37,0,0,89.3944
1.5,105.673,106.322,37,37,0,0,89.4314
1.52,105.68,107.062,37.74,37,0,0,89.469
1.54,105.687,107.802,38.48,37,0,0,89.5073
1.56,105.693,108.542,39.22,37,0,0,89.5462
1.58,105.699,109.282,39.96,37,0,0,89.5857
1.6,105.704,110.022,40.7,37,0,0,89.6259
1.62,105.708,110.762,41.44,37,0,0,89.6667
1.64,105.712,111.502,42.18,37,0,0,89.7081
1.66,105.716,112.242,42.92,37,0,0,89.7501
1.68,105.719,112.982,43.66,37,0,0,89.7927
1.7,105.721,113.722,44.4,37,0,0,89.8359
1.72,105.723,114.462,45.14,37,0,0,89.8797
1.74,105.724,115.202,45.88,37,0,0,89.924
1.76,105.725,115.942,46.62,37,0,0,89.9689
1.78,105.725,116.682,47.36,37,0,0,90.0142
1.8,105.725,117.422,48.1,37,0,0,90.0601
1.82,105.724,118.162,48.84,37,0,0,90.1064
1.84,105.722,118.902,49.58,37,0,0,90.1532
1.86,105.72,119.642,50.32,37,0,0,90.2004
1.88,105.717,120.382,51.06,37,0,0,90.2481
1.9,105.713,121.122,51.8,37,0,0,90.2961
1.92,105.709,121.862,52.54,37,0,0,90.3445
1.94,105.704,122.602,53.28,37,0,0,90.3932
1.96,105.699,123.342,54.02,37,0,0,90.4423
1.98,105.693,124.082,54.76,37,0,0,90.4915
2,105.686,124.822,55.5,37,0,0,90.5411
2.02,105.679,125.562,56.24,37,0,0,90.5908
2.04,105.671,126.301,56.98,37,0,0,90.6406
2.06,105.662,127.041,57.72,37,0,0,90.6906
2.08,105.653,127.781,58.46,37,0,0,90.7406
2.1,105.643,128.521,59.2,37,0,0,90.7907
2.12,105.633,129.261,59.94,37,0,0,90.8407
2.14,105.622,130.001,60.68,37,0,0,90.8907
2.16,105.61,130.741,61.42,37,0,0,90.9406
2.18,105.597,131.481,62.16,37,0,0,90.9902
2.2,105.584,132.221,62.9,37,0,0,91.0396
2.22,105.57,132.961,63.64,37,0,0,91.0888
2.24,105.556,133.701,64.38,37,0,0,91.1376
2.26,105.541,134.44,65.12,37,0,0,91.1859
2.28,105.525,135.18,65.86,37,0,0,91.2338
2.3,105.509,135.92,66.6,37,0,0,91.2811
2.32,105.492,136.66,67.34,37,0,0,91.3279
2.34,105.475,137.4,68.08,37,0,0,91.3739
2.36,105.457,138.139,68.82,37,0,0,91.4192
2.38,105.438,138.879,69.56,37,0,0,91.4637
2.4,105.419,139.619,70.3,37,0,0,91.5073
2.42,105.399,140.359,71.04,37,0,0,91.5499
2.44,105.379,141.098,71.78,37,0,0,91.5915
2.46,105.358,141.838,72.52,37,0,0,91.632
2.48,105.337,142.578,73.26,37,0,0,91.6713
2.5,105.315,143.317,74,37,0,0,91.7093
2.52,105.293,144.057,74.74,37,0,0,91.746
2.54,105.27,144.797,75.48,37,0,0,91.7814
2.56,105.247,145.536,76.22,37,0,0,91.8153
2.58,105.223,146.276,76.96,37,0,0,91.8476
2.6,105.199,147.016,77.7,37,0,0,91.8784
2.62,105.175,147.755,78.44,37,0,0,91.9076
2.64,105.15,148.495,79.18,37,0,0,91.9349
2.66,105.125,149.234,79.92,37,0,0,91.9606
2.68,105.099,149.974,80.66,37,0,0,91.9845
2.7,105.073,150.714,81.4,37,0,0,92.0064
2.72,105.047,151.453,82.14,37,0,0,92.0265
2.74,105.021,152.193,82.88,37,0,0,92.0447
2.76,104.995,152.932,83.62,37,0,0,92.0607
2.78,104.968,153.672,84.36,37,0,0,92.0748
2.8,104.941,154.411,85.1,37,0,0,92.0869
2.82,104.914,155.151,85.84,37,0,0,92.0969
2.84,104.887,155.89,86.58,37,0,0,92.1048
2.86,104.86,156.63,87.32,37,0,0,92.1107
2.88,104.832,157.369,88.06,37,0,0,92.1145
2.9,104.805,158.109,88.8,37,0,0,92.116
2.92,104.778,158.848,89.54,37,0,0,92.1156
2.94,104.75,159.588,90.28,37,0,0,92.1132
2.96,104.723,160.327,91.02,37,0,0,92.1085
2.98,104.696,161.067,91.76,37,0,0,92.1019
3,104.669,161.806,92.5,37,0,0,92.0933
3.02,104.642,162.546,93.24,37,0,0,92.0826
3.04,104.615,163.285,93.98,37,0,0,92.07
3.06,104.588,164.025,94.72,37,0,0,92.0557
3.08,104.562,164.764,95.46,37,0,0,92.0392
3.1,104.536,165.504,96.2,37,0,0,92.021
3.12,104.51,166.243,96.94,37,0,0,92.0012
3.14,104.484,166.983,97.68,37,0,0,91.9795
3.16,104.459,167.722,98.42,37,0,0,91.9561
3.18,104.434,168.462,99.16,37,0,0,91.9312
3.2,104.409,169.202,99.9,37,0,0,91.9049
3.22,104.384,169.941,100.64,37,0,0,91.8769
3.24,104.36,170.681,101.38,37,0,0,91.8475
3.26,104.337,171.42,102.12,37,0,0,91.8169
3.28,104.313,172.16,102.86,37,0,0,91.785
3.3,104.291,172.9,103.6,37,0,0,91.7518
3.32,104.268,173.639,104.34,37,0,0,91.7175
3.34,104.246,174.379,105.08,37,0,0,91.6822
3.36,104.225,175.119,105.82,37,0,0,91.6458
3.38,104.204,175.858,106.56,37,0,0,91.6085
3.4,104.183,176.598,107.3,37,0,0,91.5704
3.42,104.163,177.338,108.04,37,0,0,91.5315
3.44,104.144,178.078,108.78,37,0,0,91.4918
3.46,104.125,178.817,109.52,37,0,0,91.4514
3.48,104.106,179.557,110.26,37,0,0,91.4105
3.5,104.088,180.297,111,37,0,0,91.369
3.52,104.071,181.037,111.74,37,0,0,91.3271
3.54,104.054,181.777,112.48,37,0,0,91.2847
3.56,104.038,182.516,113.22,37,0,0,91.2419
3.58,104.022,183.256,113.96,37,0,0,91.1988
3.6,104.007,183.996,114.7,37,0,0,91.1555
3.62,103.992,184.736,115.44,37,0,0,91.112
3.64,103.978,185.476,116.18,37,0,0,91.0683
3.66,103.964,186.216,116.92,37,0,0,91.0245
3.68,103.951,186.955,117.66,37,0,0,90.9807
3.7,103.939,187.695,118.4,37,0,0,90.9368
3.72,103.927,188.435,119.14,37,0,0,90.8929
3.74,103.916,189.175,119.88,37,0,0,90.8492
3.76,103.905,189.915,120.62,37,0,0,90.8055
3.78,103.895,190.655,121.36,37,0,0,90.7619
3.8,103.886,191.395,122.1,37,0,0,90.7185
3.82,103.877,192.135,122.84,37,0,0,90.6754
3.84,103.868,192.875,123.58,37,0,0,90.6324
3.86,103.86,193.615,124.32,37,0,0,90.5897
3.88,103.853,194.355,125.06,37,0,0,90.5473
3.9,103.846,195.095,125.8,37,0,0,90.5052
3.92,103.84,195.835,126.54,37,0,0,90.4635
3.94,103.834,196.575,127.28,37,0,0,90.4221
3.96,103.829,197.315,128.02,37,0,0,90.3811
3.98,103.824,198.055,128.76,37,0,0,90.3405
4,103.82,198.795,129.5,37,0,0,90.3004
4.02,103.817,199.535,130.24,37,0,0,90.2607
4.04,103.814,200.275,130.98,37,0,0,90.2214
4.06,103.811,201.015,131.72,37,0,0,90.1826
4.08,103.809,201.755,132.46,37,0,0,90.1443
4.1,103.807,202.495,133.2,37,0,0,90.1065
4.12,103.806,203.235,133.94,37,0,0,90.0692
4.14,103.805,203.975,134.68,37,0,0,90.0324
4.16,103.805,204.715,135.42,37,0,0,89.9962
4.18,103.805,205.455,136.16,37,0,0,89.9605
4.2,103.806,206.195,136.9,37,0,0,89.9253
4.22,103.807,206.935,137.64,37,0,0,89.8908
4.24,103.809,207.675,138.38,37,0,0,89.8567
4.26,103.811,208.415,139.12,37,0,0,89.8233
4.28,103.814,209.155,139.86,37,0,0,89.7905
4.3,103.817,209.895,140.6,37,0,0,89.7582
4.32,103.82,210.635,141.34,37,0,0,89.7266
4.34,103.824,211.375,142.08,37,0,0,89.6955
4.36,103.828,212.115,142.82,37,0,0,89.6651
4.38,103.832,212.855,143.56,37,0,0,89.6352
4.4,103.837,213.595,144.3,37,0,0,89.606
4.42,103.842,214.335,145.04,37,0,0,89.5774
4.44,103.848,215.075,145.78,37,0,0,89.5495
4.46,103.854,215.815,146.52,37,0,0,89.5222
4.48,103.86,216.555,147.26,37,0,0,89.4955
4.5,103.867,217.294,148,37,0,0,89.4694
4.52,103.874,218.034,148.74,37,0,0,89.444
4.54,103.881,218.774,149.48,37,0,0,89.4192
4.56,103.889,219.514,150.22,37,0,0,89.3951
4.58,103.897,220.254,150.96,37,0,0,89.3716
4.6,103.905,220.994,151.7,37,0,0,89.3488
4.62,103.914,221.734,152.44,37,0,0,89.3266
4.64,103.923,222.474,153.18,37,0,0,89.3051
4.66,103.932,223.214,153.92,37,0,0,89.2843
4.68,103.941,223.954,154.66,37,0,0,89.2641
4.7,103.951,224.694,155.4,36.82,-37,0,89.2446
4.72,103.961,225.422,156.129,36.08,-37,0,89.2261
4.74,103.97,226.137,156.843,35.34,-37,0,89.2085
4.76,103.98,226.836,157.542,34.6,-37,0,89.192
4.78,103.99,227.52,158.227,33.86,-37,0,89.1764
4.8,104,228.19,158.897,33.12,-37,0,89.1618
4.82,104.009,228.845,159.552,32.38,-37,0,89.148
4.84,104.019,229.485,160.192,31.64,-37,0,89.135
4.86,104.028,230.111,160.817,30.9,-37,0,89.1228
4.88,104.038,230.721,161.428,30.16,-37,0,89.1115
4.9,104.047,231.317,162.024,29.42,-37,0,89.101
4.92,104.056,231.898,162.605,28.68,-37,0,89.0911
4.94,104.065,232.464,163.171,27.94,-37,0,89.0818
4.96,104.074,233.015,163.722,27.2,-37,0,89.0734
4.98,104.083,233.552,164.259,26.46,-37,0,89.0655
5,104.091,234.074,164.781,25.72,-37,0,89.0581
5.02,104.1,234.58,165.288,24.98,-37,0,89.0514
5.04,104.108,235.073,165.78,24.24,-37,0,89.0452
5.06,104.116,235.55,166.257,23.5,-37,0,89.0395
5.08,104.124,236.012,166.72,22.76,-37,0,89.0343
5.1,104.131,236.46,167.168,22.02,-37,0,89.0295
5.12,104.139,236.893,167.601,21.28,-37,0,89.0253
5.14,104.146,237.311,168.019,20.54,-37,0,89.0213
5.16,104.153,237.715,168.422,19.8,-37,0,89.0179
5.18,104.159,238.103,168.811,19.06,-37,0,89.0146
5.2,104.166,238.477,169.185,18.32,-37,0,89.0119
5.22,104.172,238.836,169.544,17.58,-37,0,89.0093
5.24,104.178,239.18,169.888,16.84,-37,0,89.0071
5.26,104.184,239.509,170.217,16.1,-37,0,89.0052
5.28,104.189,239.824,170.532,15.36,-37,0,89.0034
5.3,104.194,240.124,170.832,14.62,-37,0,89.002
5.32,104.199,240.409,171.117,13.88,-37,0,89.0007
5.34,104.204,240.679,171.387,13.14,-37,0,88.9995
5.36,104.208,240.934,171.642,12.4,-37,0,88.9987
5.38,104.213,241.175,171.883,11.66,-37,0,88.9979
5.4,104.217,241.4,172.109,10.92,-37,0,88.9971
5.42,104.22,241.611,172.32,10.18,-37,0,88.9967
5.44,104.224,241.808,172.516,9.44,-37,0,88.9963
5.46,104.227,241.989,172.697,8.7,-37,0,88.9959
5.48,104.23,242.156,172.864,7.96,-37,0,88.9956
5.5,104.232,242.307,173.016,7.22,-37,0,88.9954
5.52,104.235,242.444,173.153,6.48,-37,0,88.9953
5.54,104.237,242.566,173.275,5.74,-37,0,88.9952
5.56,104.239,242.674,173.382,5,-37,0,88.9952
5.58,104.241,242.766,173.475,4.26,-37,0,88.9951
5.6,104.242,242.844,173.553,3.52,-37,0,88.995
5.62,104.243,242.907,173.616,2.78,-37,0,88.995
5.64,104.244,242.955,173.664,2.04,-37,0,88.995
5.66,104.244,242.989,173.697,1.3,-37,0,88.9949
5.68,104.245,243.005,173.713,0.56,-37,0,88.9949
