"time","x","y","position","velocity","acceleration","jerk","heading"
0,14.0318,36.6072,0,0,0,0,0
0.02,14.1657,36.6071,0.133932,6.69658,334.829,16741.4,0.000742541
0.04,14.2998,36.6071,0.267963,6.70158,0.249908,-16728.9,0.00148508
0.06,14.4338,36.6071,0.401995,6.70158,-5.67093e-07,-12.4954,0.00222762
0.08,14.5677,36.6072,0.535926,6.69658,-0.249907,-12.4953,0.00297016
0.1,14.7018,36.6072,0.669958,6.70158,0.249907,24.9907,0.0037127
0.12,14.8358,36.6072,0.803989,6.70158,3.51541e-10,-12.4953,0.00445524
0.14,14.9697,36.6072,0.937921,6.69658,-0.25,-12.5,0.00519778
0.16,15.2071,36.6072,1.17532,11.8697,258.657,12945.4,0.00742638
0.18,15.5302,36.6072,1.49843,16.1557,214.3,-2217.83,0.0108884
0.2,15.8533,36.6073,1.82154,16.1557,-6.80384e-06,-10715,0.0143505
0.22,16.2212,36.6074,2.1894,18.3926,111.846,5592.28,0.0194071
0.24,16.6417,36.6075,2.60992,21.0263,131.684,991.937,0.0263425
0.26,17.0692,36.6077,3.03742,21.3748,17.4223,-5713.1,0.0338557
0.28,17.5669,36.6081,3.53509,24.8835,175.439,7900.82,0.0472071
0.3,18.0708,36.6085,4.03896,25.1935,15.4983,-7997.02,0.0610022
0.32,18.6349,36.6092,4.60315,28.2094,150.794,6764.76,0.0791291
0.34,19.2188,36.6101,5.187,29.1925,49.1576,-5081.8,0.0991829
0.36,19.8421,36.6113,5.81027,31.1638,98.5654,2470.39,0.12309
0.38,20.5045,36.6129,6.47273,33.1226,97.9362,-31.4611,0.153724
0.4,21.1944,36.6149,7.16263,34.4951,68.6281,-1465.4,0.188545
0.42,21.9198,36.6175,7.88805,36.271,88.7951,1008.35,0.228141
0.44,22.6874,36.6209,8.65559,38.3772,105.307,825.618,0.2747
0.46,23.4855,36.625,9.45377,39.909,76.592,-1435.77,0.329486
0.48,24.3163,36.6302,10.2845,41.5383,81.4623,243.515,0.392297
0.5,25.1808,36.6366,11.1491,43.2279,84.4841,151.09,0.462661
0.52,26.0794,36.6444,12.0477,44.9322,85.2112,36.3534,0.542397
0.54,27.0112,36.654,12.9795,46.5892,82.8533,-117.895,0.635682
0.56,27.9729,36.6654,13.9413,48.0895,75.0139,-391.971,0.740045
0.58,28.9469,36.679,14.9154,48.7044,30.7437,-2213.51,0.854235
0.6,29.9184,36.6945,15.887,48.5818,-6.12986,-1843.68,0.97937
0.62,30.8872,36.7121,16.856,48.4464,-6.767,-31.8567,1.11616
0.64,31.8538,36.7321,17.8228,48.3414,-5.25012,75.8439,1.26242
0.66,32.818,36.7546,18.7873,48.2228,-5.93241,-34.1143,1.41895
0.68,33.7792,36.7798,19.7488,48.0769,-7.29667,-68.2134,1.58866
0.7,34.7374,36.8079,20.7074,47.9328,-7.20465,4.60108,1.77101
0.72,35.6929,36.839,21.6635,47.8005,-6.61122,29.6718,1.96457
0.74,36.6458,36.8733,22.617,47.6749,-6.28019,16.5513,2.16973
0.76,37.5957,36.911,23.5676,47.5329,-7.10379,-41.1799,2.38715
0.78,38.5422,36.9524,24.515,47.3673,-8.27886,-58.7536,2.61946
0.8,39.4856,36.9975,25.4595,47.2271,-7.00822,63.5317,2.86361
0.82,40.4263,37.0466,26.4015,47.0992,-6.39817,30.5028,3.11915
0.84,41.3644,37.0998,27.341,46.9767,-6.12337,13.7401,3.38566
0.86,42.2999,37.1575,28.2783,46.8646,-5.60693,25.8219,3.66245
0.88,43.2328,37.2194,29.2133,46.7493,-5.76155,-7.73123,3.94855
0.9,44.1637,37.2861,30.1466,46.6647,-4.23254,76.4509,4.24278
0.92,45.0928,37.3575,31.0784,46.5928,-3.59183,32.0352,4.54328
0.94,46.0207,37.4336,32.0095,46.5505,-2.11668,73.7574,4.84713
0.96,46.9481,37.5148,32.9403,46.5434,-0.35481,88.0937,5.15186
0.98,47.8753,37.6008,33.8716,46.5635,1.00587,68.034,5.45468
1,48.8033,37.6919,34.804,46.6201,2.82856,91.1345,5.75254
1.02,49.7326,37.788,35.7383,46.7138,4.68579,92.8613,6.0422
1.04,50.6641,37.8889,36.6752,46.8457,6.59209,95.315,6.32032
1.06,51.5984,37.9947,37.6155,47.0156,8.49646,95.2187,6.5836
1.08,52.5362,38.105,38.5598,47.2146,9.95254,72.8038,6.82888
1.1,53.4784,38.2198,39.5089,47.457,12.1163,108.191,7.05325
1.12,54.4254,38.3387,40.4633,47.7202,13.1605,52.2093,7.25418
1.14,55.3777,38.4616,41.4235,48.0106,14.5196,67.9549,7.4296
1.16,56.3357,38.5879,42.3899,48.316,15.2741,37.7248,7.57794
1.18,57.2998,38.7172,43.3626,48.6357,15.9823,35.4072,7.69813
1.2,58.2702,38.8493,44.3419,48.9685,16.6419,32.9793,7.78917
1.22,59.2473,38.9835,45.3282,49.3147,17.3078,33.2963,7.8496
1.24,60.2306,39.1195,46.3209,49.6327,15.8986,-70.4576,7.88167
1.26,61.2202,39.2566,47.3199,49.9507,15.904,0.268569,7.88632
1.28,62.2155,39.3944,48.3247,50.2419,14.5566,-67.3707,7.86475
1.3,63.2167,39.5325,49.3353,50.529,14.3576,-9.95169,7.81844
1.32,64.223,39.6701,50.351,50.7843,12.763,-79.73,7.74897
1.34,65.2344,39.8071,51.3717,51.0344,12.506,-12.8458,7.65799
1.36,66.2506,39.9427,52.3969,51.2584,11.2016,-65.2229,7.54702
1.38,67.2715,40.0768,53.4266,51.4843,11.2955,4.69654,7.41629
1.4,68.2969,40.2091,54.4605,51.697,10.6331,-33.1209,7.26676
1.42,69.326,40.3388,55.4977,51.8625,8.27618,-117.846,7.10239
1.44,70.3586,40.466,56.5381,52.0176,7.75346,-26.1356,6.92452
1.46,71.3944,40.59,57.5813,52.1579,7.01481,-36.9325,6.73428
1.48,72.4333,40.7109,58.6272,52.2956,6.88361,-6.56009,6.53195
1.5,73.4755,40.8283,59.676,52.4429,7.36637,24.1378,6.31653
1.52,74.5204,40.942,60.727,52.5503,5.36925,-99.8557,6.09204
1.54,75.5674,41.0516,61.7798,52.6391,4.43948,-46.4885,5.85912
1.56,76.6169,41.1571,62.8346,52.7374,4.91679,23.8654,5.61788
1.58,77.6692,41.2583,63.8917,52.8586,6.05931,57.1258,5.3659
1.6,78.7235,41.355,64.9504,52.9352,3.82869,-111.531,5.10707
1.62,79.7798,41.4469,66.0108,53.0159,4.03902,10.5164,4.84151
1.64,80.8383,41.5341,67.0728,53.1041,4.40534,18.3161,4.56779
1.66,81.8992,41.6163,68.1369,53.2019,4.8936,24.4128,4.28548
1.68,82.9619,41.6933,69.2024,53.2749,3.64939,-62.2103,3.99688
1.7,84.0265,41.7649,70.2694,53.3521,3.85805,10.433,3.7012
1.72,85.094,41.8312,71.339,53.4767,6.23291,118.743,3.39484
1.74,86.1633,41.8917,72.41,53.5515,3.74011,-124.64,3.08177
1.76,87.2346,41.9464,73.4827,53.6356,4.20168,23.0782,2.76131
1.78,88.3093,41.9951,74.5584,53.7877,7.60715,170.274,2.42755
1.8,89.386,42.0377,75.636,53.8765,4.4396,-158.378,2.08576
1.82,90.4649,42.0737,76.7155,53.9766,5.00347,28.1935,1.73505
1.84,91.548,42.1031,77.799,54.1765,9.99553,249.603,1.3672
1.86,92.6335,42.1255,78.8847,54.2846,5.40668,-229.443,0.989135
1.88,93.7219,42.1407,79.9733,54.4266,7.09778,84.5551,0.598935
1.9,94.8125,42.1482,81.0639,54.531,5.22004,-93.8869,0.199646
1.92,95.8776,42.1486,82.129,53.2566,-63.7198,-3446.99,-0.0874126
1.94,96.9133,42.1456,83.1647,51.785,-73.5805,-493.035,-0.244734
1.96,97.9467,42.1398,84.1981,51.671,-5.70001,3394.03,-0.391956
1.98,98.9773,42.1316,85.2288,51.5315,-6.97359,-63.6788,-0.526812
2,100.006,42.1209,86.257,51.4139,-5.88129,54.615,-0.651643
2.02,101.032,42.1081,87.2834,51.3205,-4.66588,60.7706,-0.766385
2.04,102.056,42.0934,88.3073,51.1918,-6.43581,-88.4969,-0.870985
2.06,103.076,42.0771,89.3278,51.0259,-8.29896,-93.1572,-0.965254
2.08,104.095,42.0591,90.3467,50.9459,-3.9977,215.063,-1.04795
2.1,105.111,42.0398,91.363,50.8145,-6.5703,-128.63,-1.11895
2.12,106.125,42.0194,92.377,50.6988,-5.78306,39.362,-1.17966
2.14,107.136,41.9981,93.3886,50.5828,-5.80234,-0.964028,-1.23005
2.16,108.144,41.9761,94.397,50.4166,-8.31004,-125.385,-1.27013
2.18,109.151,41.9535,95.4039,50.3466,-3.49719,240.642,-1.29957
2.2,110.155,41.9305,96.4079,50.2011,-7.27758,-189.02,-1.31614
2.22,111.156,41.9074,97.4096,50.0822,-5.94453,66.6527,-1.32222
2.24,112.154,41.8844,98.4079,49.9149,-8.36442,-120.995,-1.31795
2.26,113.151,41.8614,99.4048,49.8471,-3.38862,248.79,-1.30331
2.28,114.145,41.8391,100.399,49.727,-6.00706,-130.922,-1.27813
2.3,115.137,41.8172,101.391,49.5921,-6.74399,-36.8469,-1.2411
2.32,116.124,41.7962,102.379,49.4072,-9.24715,-125.158,-1.19226
2.34,117.111,41.7761,103.366,49.3378,-3.46973,288.871,-1.13297
2.36,118.095,41.7572,104.35,49.2177,-6.00398,-126.713,-1.0632
2.38,119.077,41.7396,105.332,49.0971,-6.02869,-1.2356,-0.982908
2.4,120.056,41.7235,106.312,48.9718,-6.26698,-11.9146,-0.891681
2.42,121.033,41.7092,107.288,48.8196,-7.60913,-67.1072,-0.787156
2.44,122.005,41.6967,108.261,48.6468,-8.63902,-51.4945,-0.671923
2.46,122.977,41.6863,109.233,48.5732,-3.67948,247.977,-0.545905
2.48,123.946,41.6782,110.202,48.4488,-6.22015,-127.033,-0.409018
2.5,124.912,41.6725,111.168,48.3217,-6.35741,-6.8628,-0.261002
2.52,125.876,41.6694,112.132,48.1781,-7.17669,-40.9644,-0.100388
2.54,126.836,41.6692,113.092,48.0343,-7.19328,-0.829055,0.0728849
2.56,127.795,41.6719,114.05,47.9053,-6.44772,37.2776,0.257542
2.58,128.75,41.6777,115.006,47.7752,-6.50624,-2.92593,0.453734
2.6,129.703,41.6869,115.959,47.6439,-6.56721,-3.04829,0.661629
2.62,130.653,41.6997,116.909,47.508,-6.7907,-11.1745,0.881684
2.64,131.6,41.7161,117.856,47.3474,-8.03173,-62.0515,1.11617
2.66,132.544,41.7365,118.8,47.2044,-7.14887,44.1429,1.36362
2.68,133.484,41.761,119.74,47.0165,-9.39588,-112.351,1.62369
2.7,134.422,41.7897,120.679,46.927,-4.47578,246.005,1.89663
2.72,135.356,41.823,121.614,46.736,-9.54965,-253.693,2.18273
2.74,136.288,41.8608,122.546,46.6396,-4.81942,236.511,2.48257
2.76,137.215,41.9035,123.475,46.4175,-11.1082,-314.437,2.79862
2.78,138.138,41.9513,124.399,46.2133,-10.207,45.0564,3.12949
2.8,139.059,42.0043,125.321,46.1133,-4.99926,260.388,3.47497
2.82,139.974,42.0628,126.238,45.862,-12.5654,-378.31,3.83546
2.84,140.887,42.1269,127.154,45.7582,-5.19296,368.624,4.21139
2.86,141.796,42.1968,128.065,45.5513,-10.341,-257.404,4.60329
2.88,142.7,42.2728,128.972,45.3838,-8.3776,98.1715,5.01247
2.9,143.598,42.3549,129.874,45.0961,-14.3832,-300.281,5.441
2.92,144.494,42.4436,130.774,44.9831,-5.65165,436.579,5.8871
2.94,145.383,42.5389,131.668,44.7177,-13.2686,-380.849,6.35135
2.96,146.267,42.641,132.558,44.5002,-10.8747,119.696,6.83439
2.98,147.147,42.7502,133.445,44.3302,-8.49947,118.763,7.33687
3,148.02,42.8667,134.326,44.0599,-13.516,-250.825,7.8595
3.02,148.888,42.9905,135.203,43.8345,-11.2712,112.238,8.40312
3.04,149.749,43.1221,136.074,43.5477,-14.3396,-153.421,8.96955
3.06,150.604,43.2614,136.94,43.2987,-12.4489,94.535,9.56038
3.08,151.452,43.4089,137.8,43.0211,-13.8788,-71.4954,10.1746
3.1,152.293,43.5645,138.656,42.7921,-11.4519,121.349,10.813
3.12,153.126,43.7286,139.505,42.4639,-16.4094,-247.878,11.4766
3.14,153.952,43.9012,140.349,42.1831,-14.0414,118.401,12.1664
3.16,154.769,44.0826,141.186,41.8555,-16.382,-117.029,12.8833
3.18,155.578,44.2731,142.017,41.5298,-16.2806,5.07107,13.6283
3.2,156.378,44.4726,142.842,41.2534,-13.8236,122.85,14.4025
3.22,157.168,44.6814,143.658,40.8329,-21.0222,-359.932,15.207
3.24,157.949,44.8995,144.47,40.5635,-13.4729,377.463,16.0427
3.26,158.719,45.1271,145.272,40.106,-22.8709,-469.9,16.9106
3.28,159.474,45.3633,146.063,39.5866,-25.972,-155.053,17.808
3.3,160.21,45.6059,146.838,38.7424,-42.211,-811.948,18.7275
3.32,160.921,45.8534,147.591,37.6551,-54.3626,-607.58,19.6643
3.34,161.608,46.1056,148.323,36.5847,-53.5225,42.0033,20.6178
3.36,162.273,46.3617,149.035,35.6092,-48.7753,237.362,21.5886
3.38,162.914,46.6221,149.728,34.6146,-49.7299,-47.7335,22.5756
3.4,163.535,46.8864,150.402,33.7309,-44.1843,277.281,23.5784
3.42,164.133,47.1534,151.057,32.7352,-49.7835,-279.959,24.6079
3.44,164.714,47.4256,151.699,32.0937,-32.0774,885.304,25.6385
3.46,165.276,47.7014,152.325,31.3022,-39.5757,-374.917,26.6843
3.48,165.819,47.9801,152.935,30.495,-40.3601,-39.2157,27.7523
3.5,166.347,48.2642,153.535,30.0131,-24.0951,813.246,28.8145
3.52,166.852,48.5481,154.114,28.9449,-53.4095,-1465.72,29.9194
3.54,167.344,48.8374,154.685,28.54,-20.2419,1658.38,31.0135
3.56,167.819,49.1286,155.242,27.8442,-34.7913,-727.472,32.1327
3.58,168.278,49.4237,155.787,27.2937,-27.5238,363.376,33.2625
3.6,168.726,49.7232,156.326,26.9421,-17.5805,497.166,34.3932
3.62,169.156,50.024,156.851,26.2343,-35.3919,-890.571,35.55
3.64,169.574,50.329,157.369,25.8822,-17.6028,889.453,36.7053
3.66,169.979,50.6373,157.878,25.4543,-21.3979,-189.753,37.8736
3.68,170.373,50.9494,158.38,25.1228,-16.5752,241.135,39.0513
3.7,170.756,51.2664,158.877,24.8554,-13.3705,160.232,40.231
3.72,171.125,51.5856,159.365,24.4034,-22.6,-461.474,41.4237
3.74,171.485,51.9098,159.85,24.2378,-8.27684,716.159,42.6199
3.76,171.835,52.2389,160.33,24.0069,-11.5443,-163.375,43.82
3.78,172.177,52.573,160.808,23.8993,-5.38164,308.135,45.0242
3.8,172.508,52.9119,161.282,23.695,-10.2131,-241.575,46.2327
3.82,172.831,53.2566,161.755,23.6253,-3.48622,336.346,47.4426
3.84,173.147,53.6074,162.226,23.585,-2.01707,73.4575,48.6534
3.86,173.454,53.9647,162.698,23.5767,-0.411146,80.2964,49.8644
3.88,173.754,54.3286,163.169,23.5779,0.059167,23.5157,51.0766
3.9,174.048,54.7004,163.644,23.7081,6.50789,322.436,52.2839
3.92,174.335,55.08,164.119,23.7909,4.14066,-118.361,53.4899
3.94,174.616,55.4668,164.597,23.8825,4.57806,21.87,54.6976
3.96,174.892,55.8655,165.082,24.2495,18.3508,688.637,55.8888
3.98,175.161,56.2724,165.57,24.4023,7.64308,-535.386,57.0824
4,175.424,56.6894,166.063,24.6491,12.3363,234.662,58.2692
4.02,175.683,57.1178,166.564,25.0378,19.4359,354.977,59.4428
4.04,175.936,57.5573,167.071,25.3554,15.8788,-177.854,60.6169
4.06,176.186,58.0108,167.589,25.8828,26.3713,524.627,61.7732
4.08,176.429,58.4764,168.114,26.2603,18.8754,-374.794,62.9225
4.1,176.667,58.9546,168.648,26.7147,22.7209,192.273,64.0647
4.12,176.901,59.4481,169.194,27.3024,29.3862,333.266,65.1886
4.14,177.131,59.9581,169.754,27.9714,33.4497,203.175,66.3053
4.16,177.356,60.4849,170.326,28.6402,33.4387,-0.54888,67.4041
4.18,177.575,61.0266,170.911,29.2157,28.773,-233.288,68.4946
4.2,177.788,61.585,171.509,29.8927,33.8524,253.972,69.5737
4.22,177.998,62.1637,172.124,30.7662,43.6736,491.06,70.6319
4.24,178.201,62.7614,172.755,31.5755,40.467,-160.329,71.6738
4.26,178.401,63.3821,173.407,32.6049,51.4674,550.018,72.697
4.28,178.594,64.0246,174.078,33.5442,46.9649,-225.125,73.7029
4.3,178.783,64.6898,174.77,34.5726,51.4236,222.939,74.6912
4.32,178.965,65.3788,175.482,35.6297,52.8532,71.477,75.6612
4.34,179.141,66.0931,176.218,36.784,57.7132,243.002,76.6125
4.36,179.311,66.8339,176.978,38.0004,60.8204,155.36,77.5444
4.38,179.473,67.5997,177.761,39.1399,56.9749,-192.276,78.4527
4.4,179.627,68.384,178.56,39.962,41.108,-793.347,79.3289
4.42,179.771,69.1814,179.37,40.5137,27.5838,-676.208,80.1654
4.44,179.905,69.9898,180.19,40.9785,23.2394,-217.218,80.9608
4.46,180.03,70.8088,181.018,41.4159,21.868,-68.5734,81.7171
4.48,180.145,71.6377,181.855,41.8477,21.5943,-13.683,82.436
4.5,180.252,72.4763,182.7,42.2631,20.7655,-41.4403,83.1183
4.52,180.349,73.3239,183.554,42.6583,19.7628,-50.1344,83.7651
4.54,180.438,74.1804,184.415,43.058,19.9863,11.1739,84.3771
4.56,180.517,75.0455,185.284,43.4365,18.9224,-53.1972,84.9554
4.58,180.59,75.9187,186.16,43.8125,18.7984,-6.19613,85.5006
4.6,180.655,76.8004,187.044,44.2039,19.57,38.5756,86.0117
4.62,180.713,77.6904,187.936,44.5939,19.502,-3.39757,86.4883
4.64,180.765,78.5798,188.827,44.5447,-2.45769,-1097.98,86.9288
4.66,180.808,79.4525,189.7,43.6908,-42.6986,-2012.05,87.3289
4.68,180.846,80.2998,190.549,42.4041,-64.3331,-1081.73,87.6882
4.7,180.876,81.1201,191.369,41.0436,-68.0238,-184.533,88.0101
4.72,180.901,81.9134,192.163,39.6851,-67.9264,4.86699,88.298
4.74,180.922,82.6801,192.93,38.3498,-66.766,58.0198,88.5555
4.76,180.939,83.4126,193.663,36.6363,-85.6739,-945.393,88.7727
4.78,180.953,84.1154,194.366,35.1434,-74.643,551.543,88.9639
4.8,180.964,84.7913,195.042,33.8003,-67.1564,374.33,89.134
4.82,180.973,85.4406,195.691,32.4695,-66.5427,30.6846,89.2846
4.84,180.98,86.0455,196.296,30.2449,-111.226,-2234.14,89.4073
4.86,180.985,86.6286,196.879,29.1561,-54.4429,2839.13,89.5184
4.88,180.989,87.1758,197.426,27.3629,-89.6584,-1760.78,89.6112
4.9,180.992,87.6876,197.938,25.5878,-88.7555,45.1486,89.689
4.92,180.995,88.1731,198.424,24.2754,-65.6227,1156.64,89.756
4.94,180.996,88.6164,198.867,22.1651,-105.511,-1994.43,89.808
4.96,180.997,89.0291,199.28,20.6388,-76.317,1459.71,89.8491
4.98,180.998,89.4222,199.673,19.6553,-49.1742,1357.14,89.8861
5,180.999,89.7412,199.992,15.9455,-185.491,-6815.83,89.9081
5.02,180.999,90.0601,200.311,15.9466,0.052866,9277.18,89.93
5.04,181,90.3562,200.607,14.8055,-57.0546,-2855.38,89.9498
5.06,181,90.4892,200.74,6.65214,-407.666,-17530.6,89.9549
5.08,181,90.6222,200.873,6.64828,-0.193277,20373.6,89.9599
5.1,181,90.7553,201.006,6.65328,0.25,22.1638,89.9649
5.12,181,90.8883,201.139,6.65328,-1.52937e-07,-12.5,89.9699
5.14,181,91.0213,201.272,6.64714,-0.306723,-15.3362,89.975
5.16,181,91.1543,201.405,6.65328,0.306723,30.6723,89.98
5.18,181,91.2873,201.538,6.64828,-0.25,-27.8362,89.985
