"time","x","y","position","velocity","acceleration","jerk","heading"
0,14.0318,36.6072,0,0,0,0,0
0.02,14.1655,36.6071,0.133744,6.68718,334.359,16717.9,0.00157115
0.04,14.2994,36.6071,0.267587,6.69218,0.249912,-16705.4,0.00314229
0.06,14.4332,36.6071,0.401431,6.69218,-5.67098e-06,-12.4959,0.00471344
0.08,14.567,36.6072,0.535174,6.68718,-0.249907,-12.495,0.00628459
0.1,14.7008,36.6072,0.669018,6.69218,0.249912,24.9909,0.00785573
0.12,14.8347,36.6072,0.802861,6.69218,-5.66895e-06,-12.4959,0.00942688
0.14,14.9684,36.6072,0.936605,6.68718,-0.249983,-12.4989,0.010998
0.16,15.2052,36.6072,1.17345,11.8422,257.751,12900,0.0156528
0.18,15.5275,36.6073,1.49571,16.1132,213.548,-2210.13,0.022867
0.2,15.8498,36.6074,1.81797,16.1132,4.67955e-08,-10677.4,0.0300812
0.22,16.2164,36.6076,2.18459,18.3309,110.887,5544.35,0.0405798
0.24,16.6352,36.608,2.60343,20.942,130.555,983.412,0.0549481
0.26,17.0609,36.6084,3.02911,21.2841,17.1028,-5672.62,0.0704573
0.28,17.5555,36.6091,3.52368,24.7283,172.213,7755.48,0.0974931
0.3,18.0562,36.6101,4.02435,25.0337,15.2673,-7847.26,0.125382
0.32,18.6162,36.6113,4.58444,28.0041,148.523,6662.8,0.161606
0.34,19.1956,36.6131,5.16379,28.9676,48.1754,-5017.4,0.201493
0.36,19.8135,36.6156,5.78168,30.8946,96.3494,2408.7,0.248707
0.38,20.4695,36.6187,6.43772,32.8017,95.3546,-49.7412,0.308089
0.4,21.1521,36.6227,7.12035,34.1317,66.5016,-1442.65,0.37498
0.42,21.8694,36.6278,7.83767,35.866,86.7115,1010.49,0.450341
0.44,22.6277,36.6343,8.59594,37.9134,102.369,782.901,0.537878
0.46,23.4152,36.6424,9.38352,39.3792,73.2931,-1453.82,0.639062
0.48,24.2343,36.6523,10.2026,40.9561,78.842,277.442,0.75339
0.5,25.086,36.6643,11.0544,42.5889,81.643,140.054,0.87992
0.52,25.9705,36.6789,11.9391,44.2335,82.2301,29.3525,1.0212
0.54,26.8867,36.6965,12.8554,45.8155,79.0981,-156.599,1.1828
0.56,27.8315,36.7174,13.8005,47.2555,72.0028,-354.765,1.36055
0.58,28.7879,36.7416,14.7571,47.8313,28.7897,-2160.66,1.5518
0.6,29.7409,36.7691,15.7106,47.6737,-7.88072,-1833.52,1.75692
0.62,30.6908,36.8,16.6609,47.5164,-7.8679,0.640867,1.97597
0.64,31.6379,36.8345,17.6088,47.3906,-6.28991,78.8999,2.20582
0.66,32.5825,36.8728,18.5541,47.2655,-6.25527,1.73184,2.44697
0.68,33.5237,36.9151,19.4962,47.1088,-7.83374,-78.9233,2.70186
0.7,34.462,36.9616,20.4357,46.9717,-6.85519,48.9273,2.96889
0.72,35.3977,37.0122,21.3728,46.8547,-5.84726,50.3964,3.24598
0.74,36.3309,37.0675,22.3076,46.7433,-5.57176,13.7751,3.53282
0.76,37.2618,37.1273,23.2405,46.6413,-5.10072,23.5521,3.82913
0.78,38.1901,37.192,24.171,46.5254,-5.79666,-34.797,4.13549
0.8,39.1165,37.2614,25.1,46.4523,-3.65467,107.1,4.44822
0.82,40.0414,37.336,26.0279,46.3927,-2.97632,33.9171,4.76588
0.84,40.9652,37.4155,26.9551,46.3592,-1.67536,65.048,5.08675
0.86,41.8882,37.5003,27.882,46.3461,-0.656804,50.928,5.40881
0.88,42.8111,37.5904,28.8092,46.3624,0.813161,73.4982,5.72957
0.9,43.7344,37.6856,29.7375,46.4118,2.47268,82.9759,6.04576
0.92,44.6592,37.7861,30.6677,46.5109,4.95456,124.094,6.35353
0.94,45.5859,37.8917,31.6004,46.635,6.20464,62.504,6.64988
0.96,46.5155,38.0025,32.5366,46.8089,8.69738,124.637,6.93126
0.98,47.4487,38.1182,33.4769,47.0184,10.4734,88.8012,7.19405
1,48.3865,38.2387,34.4224,47.2743,12.7954,116.101,7.43458
1.02,49.3295,38.3637,35.3736,47.5618,14.3753,78.9918,7.64937
1.04,50.2786,38.4928,36.3315,47.8933,16.5729,109.884,7.83519
1.06,51.2344,38.6258,37.2965,48.2498,17.8276,62.7315,7.9892
1.08,52.1975,38.7622,38.2693,48.6384,19.4282,80.0338,8.10912
1.1,53.1685,38.9014,39.2502,49.0459,20.3773,47.4542,8.1933
1.12,54.1476,39.043,40.2394,49.4609,20.75,18.6343,8.24078
1.14,55.1349,39.1862,41.2371,49.8836,21.1327,19.136,8.25132
1.16,56.1303,39.3305,42.2429,50.2905,20.3451,-39.3816,8.22543
1.18,57.1339,39.4751,43.2569,50.6981,20.3796,1.72621,8.16398
1.2,58.1457,39.6194,44.2789,51.1036,20.2768,-5.1392,8.06678
1.22,59.1648,39.7627,45.308,51.4535,17.4925,-139.219,7.93844
1.24,60.1906,39.9045,46.3436,51.7789,16.2712,-61.0638,7.7817
1.26,61.2226,40.0439,47.3849,52.0665,14.3773,-94.6936,7.59957
1.28,62.2601,40.1806,48.4314,52.3225,12.8029,-78.7192,7.39513
1.3,63.3023,40.3139,49.4821,52.536,10.6746,-106.417,7.17152
1.32,64.3487,40.4434,50.5364,52.7184,9.12125,-77.6666,6.93176
1.34,65.3987,40.5688,51.5939,52.8736,7.76019,-68.053,6.67871
1.36,66.4515,40.6896,52.6537,52.9885,5.74213,-100.903,6.41493
1.38,67.507,40.8058,53.7156,53.0938,5.2657,-23.8214,6.14223
1.4,68.5643,40.917,54.7787,53.1569,3.15799,-105.386,5.86389
1.42,69.623,41.023,55.8427,53.1978,2.04465,-55.6672,5.58237
1.44,70.6824,41.1239,56.9068,53.2074,0.479707,-78.247,5.29922
1.46,71.7424,41.2196,57.9712,53.2177,0.515423,1.78579,5.0158
1.48,72.8026,41.3101,59.0352,53.2032,-0.727375,-62.1399,4.73353
1.5,73.8626,41.3952,60.0986,53.1697,-1.67662,-47.4624,4.45419
1.52,74.9221,41.4752,61.1612,53.1279,-2.08671,-20.5044,4.17817
1.54,75.9813,41.55,62.2229,53.0878,-2.00848,3.91129,3.90594
1.56,77.0398,41.6198,63.2837,53.0396,-2.40666,-19.9085,3.6383
1.58,78.0969,41.6845,64.3429,52.9565,-4.15475,-87.4048,3.37755
1.6,79.1532,41.7445,65.4009,52.8997,-2.84314,65.5807,3.12199
1.62,80.2085,41.7997,66.4576,52.8365,-3.15934,-15.8103,2.8718
1.64,81.2625,41.8503,67.5128,52.7622,-3.71357,-27.7113,2.62855
1.66,82.315,41.8964,68.5663,52.6737,-4.42364,-35.5035,2.39267
1.68,83.3664,41.9381,69.6186,52.613,-3.03722,69.3212,2.16229
1.7,84.4166,41.9758,70.6695,52.5448,-3.40794,-18.5359,1.93815
1.72,85.465,42.0092,71.7183,52.4432,-5.08315,-83.7608,1.72283
1.74,86.5122,42.0388,72.766,52.3826,-3.02873,102.721,1.5128
1.76,87.5583,42.0645,73.8123,52.3186,-3.19822,-8.47442,1.30843
1.78,88.6023,42.0865,74.8566,52.2132,-5.27063,-103.621,1.11344
1.8,89.6452,42.105,75.8997,52.1534,-2.99312,113.876,0.923436
1.82,90.687,42.1201,76.9416,52.0941,-2.96287,1.51228,0.738869
1.84,91.7266,42.1319,77.9813,51.9867,-5.37108,-120.41,0.563589
1.86,92.7653,42.1405,79.02,51.9359,-2.53715,141.697,0.393093
1.88,93.8027,42.1461,80.0574,51.8719,-3.20404,-33.3444,0.228158
1.9,94.837,42.1488,81.0917,51.7146,-7.86453,-233.025,0.0770384
1.92,95.8595,42.1489,82.1143,51.1258,-29.4399,-1078.77,-0.0221951
1.94,96.8674,42.1481,83.1221,50.3911,-36.7347,-364.74,-0.0566659
1.96,97.8699,42.147,84.1246,50.1273,-13.187,1177.39,-0.0678875
1.98,98.8668,42.1458,85.1215,49.8457,-14.0834,-44.8212,-0.0542803
2,99.8592,42.1451,86.1139,49.618,-11.3829,135.027,-0.0206078
2.02,100.847,42.1451,87.1013,49.3679,-12.5031,-56.0104,0.0329022
2.04,101.83,42.1462,88.0846,49.1682,-9.98524,125.892,0.106222
2.06,102.808,42.1487,89.0631,48.9262,-12.1024,-105.86,0.20089
2.08,103.782,42.153,90.0364,48.6618,-13.2183,-55.7946,0.318889
2.1,104.751,42.1595,91.0053,48.4464,-10.7733,122.252,0.455937
2.12,105.715,42.1684,91.9699,48.2317,-10.7311,2.1084,0.611991
2.14,106.675,42.18,92.9303,48.0175,-10.7098,1.06422,0.787062
2.16,107.631,42.1947,93.8862,47.7952,-11.1183,-20.4244,0.981934
2.18,108.582,42.2127,94.8368,47.5283,-13.3419,-111.18,1.2006
2.2,109.528,42.2344,95.7831,47.3171,-10.5641,138.891,1.43825
2.22,110.468,42.26,96.7242,47.0557,-13.0697,-125.278,1.69501
2.24,111.406,42.2899,97.6621,46.8943,-8.06738,250.114,1.97101
2.26,112.338,42.3243,98.5947,46.6298,-13.226,-257.93,2.26668
2.28,113.265,42.3636,99.5225,46.3899,-11.9954,61.5288,2.58444
2.3,114.187,42.4078,100.446,46.1519,-11.8987,4.83415,2.92429
2.32,115.104,42.4575,101.364,45.9413,-10.5316,68.3536,3.2841
2.34,116.016,42.5127,102.278,45.6802,-13.0543,-126.131,3.66414
2.36,116.924,42.5738,103.187,45.4689,-10.5644,124.492,4.06469
2.38,117.825,42.6412,104.091,45.2069,-13.1012,-126.838,4.48622
2.4,118.721,42.7149,104.99,44.9296,-13.8665,-38.2684,4.93039
2.42,119.611,42.7953,105.884,44.6878,-12.0858,89.0357,5.3989
2.44,120.496,42.8826,106.773,44.4794,-10.4203,83.2748,5.88918
2.46,121.375,42.977,107.657,44.173,-15.3192,-244.943,6.40163
2.48,122.247,43.079,108.535,43.919,-12.7045,130.734,6.93662
2.5,123.113,43.1885,109.409,43.6654,-12.6802,1.21379,7.49454
2.52,123.974,43.3061,110.277,43.416,-12.4692,10.5531,8.07582
2.54,124.827,43.4317,111.139,43.1161,-14.9921,-126.145,8.68112
2.56,125.673,43.5656,111.996,42.8467,-13.471,76.0522,9.313
2.58,126.512,43.7081,112.847,42.5508,-14.7937,-66.1329,9.97011
2.6,127.344,43.8592,113.693,42.2699,-14.0474,37.3137,10.652
2.62,128.168,44.0194,114.532,41.9474,-16.1249,-103.873,11.3591
2.64,128.984,44.1887,115.365,41.6824,-13.2507,143.706,12.0916
2.66,129.793,44.3673,116.194,41.4249,-12.8746,18.8089,12.8499
2.68,130.593,44.5556,117.015,41.0817,-17.1584,-214.189,13.6342
2.7,131.385,44.7533,117.832,40.8441,-11.8824,263.796,14.4448
2.72,132.168,44.961,118.642,40.4759,-18.4081,-326.285,15.2819
2.74,132.942,45.1788,119.446,40.2204,-12.7752,281.649,16.1455
2.76,133.706,45.4063,120.243,39.8376,-19.1419,-318.339,17.0351
2.78,134.456,45.6425,121.029,39.3242,-25.6689,-326.349,17.9446
2.8,135.186,45.8855,121.799,38.4793,-42.2465,-828.877,18.8679
2.82,135.898,46.1351,122.553,37.7037,-38.778,173.424,19.8042
2.84,136.591,46.3913,123.292,36.9525,-37.5588,60.9579,20.7522
2.86,137.267,46.6537,124.017,36.2572,-34.7676,139.559,21.7121
2.88,137.926,46.9225,124.729,35.5892,-33.398,68.4801,22.6828
2.9,138.569,47.1977,125.429,34.9896,-29.9785,170.975,23.6637
2.92,139.197,47.4794,126.117,34.4102,-28.9702,50.4195,24.6544
2.94,139.811,47.7674,126.795,33.8939,-25.8144,157.786,25.6542
2.96,140.41,48.0619,127.463,33.4034,-24.5249,64.4792,26.6626
2.98,140.997,48.3626,128.122,32.9445,-22.9452,78.984,27.6818
3,141.569,48.6698,128.772,32.4961,-22.4205,26.234,28.7082
3.02,142.132,48.9843,129.416,32.2251,-13.5513,443.459,29.7356
3.04,142.682,49.3049,130.053,31.8354,-19.4869,-296.778,30.7759
3.06,143.221,49.6326,130.683,31.5224,-15.6466,192.015,31.8149
3.08,143.748,49.9665,131.308,31.2199,-15.1252,26.0703,32.8654
3.1,144.267,50.3081,131.929,31.0614,-7.92841,359.838,33.9164
3.12,144.776,50.6569,132.546,30.8286,-11.64,-185.582,34.9723
3.14,145.275,51.0131,133.159,30.6655,-8.15156,174.424,36.0319
3.16,145.766,51.3771,133.77,30.5522,-5.66683,124.236,37.0921
3.18,146.248,51.7487,134.379,30.4603,-4.59552,53.5658,38.1566
3.2,146.723,52.1287,134.987,30.3989,-3.0669,76.4311,39.2205
3.22,147.189,52.517,135.594,30.339,-2.99602,3.54367,40.2853
3.24,147.649,52.9141,136.202,30.3867,2.38246,268.924,41.3507
3.26,148.103,53.3203,136.81,30.4357,2.4506,3.40695,42.4142
3.28,148.548,53.7359,137.42,30.465,1.46563,-49.2481,43.4765
3.3,148.989,54.1608,138.032,30.6071,7.10399,281.918,44.5386
3.32,149.423,54.5964,138.647,30.7443,6.86038,-12.1805,45.5933
3.34,149.852,55.0418,139.265,30.9102,8.29687,71.8242,46.6509
3.36,150.275,55.4992,139.888,31.1649,12.7341,221.862,47.6981
3.38,150.693,55.967,140.515,31.3589,9.70152,-151.629,48.7452
3.4,151.106,56.4467,141.148,31.6503,14.5684,243.344,49.7852
3.42,151.514,56.9386,141.788,31.9593,15.4511,44.1363,50.8188
3.44,151.917,57.4422,142.432,32.2455,14.3066,-57.2281,51.8503
3.46,152.316,57.9601,143.086,32.6865,22.0522,387.28,52.868
3.48,152.71,58.4892,143.746,32.9759,14.4719,-379.012,53.8895
3.5,153.1,59.0343,144.416,33.5127,26.8388,618.342,54.8962
3.52,153.486,59.5938,145.096,33.9979,24.2596,-128.957,55.8943
3.54,153.868,60.1681,145.786,34.4817,24.1898,-3.48975,56.8837
3.56,154.245,60.7579,146.486,34.9998,25.9044,85.7259,57.8641
3.58,154.618,61.3636,147.197,35.5777,28.8964,149.6,58.8349
3.6,154.987,61.9857,147.92,36.1589,29.0601,8.18907,59.7958
3.62,155.352,62.6248,148.656,36.8006,32.0836,151.172,60.7464
3.64,155.712,63.2815,149.405,37.4525,32.5962,25.6292,61.6863
3.66,156.069,63.9563,150.169,38.1613,35.4398,142.183,62.6153
3.68,156.422,64.6499,150.947,38.9057,37.2195,88.9827,63.5325
3.7,156.768,65.361,151.738,39.5436,31.8946,-266.244,64.435
3.72,157.108,66.0851,152.538,39.9978,22.7105,-459.204,65.3175
3.74,157.438,66.8191,153.342,40.2409,12.1543,-527.813,66.1766
3.76,157.76,67.5629,154.153,40.5384,14.8747,136.024,67.0123
3.78,158.073,68.316,154.968,40.7607,11.1166,-187.907,67.8249
3.8,158.377,69.0783,155.789,41.0409,14.0101,144.675,68.6149
3.82,158.674,69.8493,156.615,41.3042,13.1623,-42.3903,69.3825
3.84,158.961,70.6289,157.446,41.5457,12.0767,-54.2799,70.128
3.86,159.239,71.4166,158.282,41.7711,11.2714,-40.2643,70.852
3.88,159.511,72.2124,159.122,42.0413,13.5077,111.813,71.5548
3.9,159.773,73.0158,159.967,42.2518,10.5237,-149.2,72.2368
3.92,160.028,73.8266,160.817,42.501,12.4603,96.8289,72.8985
3.94,160.274,74.6446,161.672,42.7069,10.296,-108.214,73.5404
3.96,160.513,75.4698,162.531,42.9502,12.1683,93.6173,74.1619
3.98,160.744,76.3019,163.394,43.1881,11.8914,-13.8468,74.7627
4,160.968,77.1405,164.262,43.3967,10.4314,-72.9998,75.345
4.02,161.184,77.9852,165.134,43.5965,9.98834,-22.1526,75.9092
4.04,161.394,78.8359,166.01,43.8041,10.3805,19.6095,76.4557
4.06,161.595,79.6922,166.89,43.9843,9.01009,-68.522,76.985
4.08,161.79,80.5542,167.774,44.1932,10.4447,71.7325,77.4974
4.1,161.978,81.4214,168.661,44.3708,8.88136,-78.1691,77.9933
4.12,162.16,82.294,169.553,44.5662,9.77086,44.475,78.4724
4.14,162.336,83.1719,170.448,44.762,9.78896,0.904949,78.9341
4.16,162.505,84.0547,171.347,44.943,9.04779,-37.0581,79.38
4.18,162.668,84.9421,172.249,45.1162,8.6631,-19.2348,79.811
4.2,162.825,85.8339,173.154,45.2701,7.69412,-48.4489,80.2274
4.22,162.975,86.73,174.063,45.4371,8.34784,32.6861,80.6295
4.24,163.12,87.6304,174.975,45.5982,8.05757,-14.5137,81.0176
4.26,163.26,88.5349,175.89,45.766,8.39084,16.6637,81.3907
4.28,163.396,89.4438,176.809,45.9429,8.84364,22.6401,81.7486
4.3,163.525,90.3565,177.731,46.087,7.20291,-82.0369,82.0933
4.32,163.649,91.2728,178.656,46.2385,7.57949,18.8292,82.4251
4.34,163.769,92.1926,179.583,46.3766,6.90177,-33.8858,82.7443
4.36,163.883,93.1159,180.514,46.5214,7.24114,16.9682,83.0509
4.38,163.995,94.0428,181.447,46.6752,7.68841,22.3634,83.344
4.4,164.1,94.9735,182.384,46.8328,7.88268,9.71371,83.6232
4.42,164.203,95.9073,183.323,46.9693,6.82561,-52.8535,83.8906
4.44,164.301,96.8441,184.265,47.0953,6.29964,-26.2985,84.1463
4.46,164.395,97.7839,185.21,47.2314,6.80332,25.1838,84.3904
4.48,164.485,98.7269,186.157,47.3631,6.58325,-11.0035,84.6225
4.5,164.573,99.6732,187.107,47.5176,7.72505,57.0899,84.8415
4.52,164.657,100.623,188.06,47.6506,6.65373,-53.5655,85.0485
4.54,164.738,101.575,189.016,47.7847,6.70053,2.33972,85.2443
4.56,164.815,102.53,189.974,47.9166,6.59867,-5.0929,85.4292
4.58,164.89,103.482,190.929,47.744,-8.62996,-761.432,85.6019
4.6,164.961,104.415,191.865,46.8062,-46.8921,-1913.1,85.7589
4.62,165.026,105.319,192.771,45.2807,-76.2749,-1469.14,85.8993
4.64,165.087,106.189,193.644,43.6274,-82.6638,-319.445,86.0256
4.66,165.146,107.029,194.486,42.1151,-75.6179,352.294,86.1392
4.68,165.199,107.832,195.29,40.2116,-95.1706,-977.634,86.2388
4.7,165.249,108.6,196.06,38.4864,-86.2633,445.367,86.3266
4.72,165.296,109.336,196.798,36.9016,-79.2365,351.339,86.4037
4.74,165.34,110.045,197.508,35.5007,-70.0477,459.441,86.4715
4.76,165.38,110.714,198.178,33.5036,-99.8557,-1490.4,86.5295
4.78,165.418,111.346,198.811,31.6464,-92.8594,349.817,86.5791
4.8,165.455,111.955,199.421,30.4936,-57.6395,1760.99,86.6242
4.82,165.487,112.514,199.982,28.0406,-122.649,-3250.47,86.6601
4.84,165.518,113.049,200.517,26.779,-63.0813,2978.39,86.6923
4.86,165.546,113.543,201.012,24.7482,-101.54,-1922.95,86.7182
4.88,165.573,114.008,201.478,23.288,-73.008,1426.61,86.7403
4.9,165.597,114.426,201.896,20.9038,-119.212,-2310.18,86.7562
4.92,165.621,114.843,202.314,20.9038,8.34456e-07,5960.58,86.7721
4.94,165.639,115.164,202.636,16.0775,-241.315,-12065.8,86.7807
4.96,165.656,115.486,202.958,16.1274,2.49614,12190.6,86.7893
4.98,165.674,115.807,203.28,16.0764,-2.55286,-252.45,86.798
5,165.682,115.956,203.428,7.43123,-432.256,-21485.2,86.8006
5.02,165.69,116.089,203.562,6.68811,-37.1564,19755,86.8027
5.04,165.697,116.223,203.696,6.68531,-0.139707,1850.84,86.8048
5.06,165.705,116.356,203.83,6.68811,0.139707,13.9707,86.8069
5.08,165.712,116.49,203.963,6.68645,-0.0829845,-11.1346,86.8089
5.1,165.72,116.623,204.097,6.68811,0.0829848,8.29847,86.811
5.12,165.727,116.757,204.231,6.68531,-0.139708,-11.1346,86.8131
