"time","x","y","position","velocity","acceleration","jerk","heading"
0,0,-2.75,0,0,0,0,0
0.02,0.00860438,-2.75,0.00860438,0.430219,21.511,1075.55,4.28079e-05
0.04,0.0296426,-2.75,0.0296426,1.05191,31.0845,478.678,0.000147475
0.06,0.0667013,-2.75,0.0667013,1.85294,40.0514,448.343,0.000331847
0.08,0.118457,-2.75,0.118457,2.5878,36.743,-165.418,0.000589339
0.1,0.185078,-2.75,0.185078,3.33105,37.1624,20.9675,0.000920786
0.12,0.266486,-2.75,0.266486,4.07037,36.9663,-9.80233,0.0013258
0.14,0.3627,-2.75,0.3627,4.8107,37.0163,2.50059,0.00180448
0.16,0.473725,-2.75,0.473725,5.55128,37.0288,0.625086,0.00235684
0.18,0.599545,-2.74999,0.599545,6.291,36.9863,-2.12542,0.00298281
0.2,0.740177,-2.74998,0.740177,7.03158,37.0288,2.12548,0.00368247
0.22,0.895685,-2.74997,0.895685,7.77539,37.1906,8.08633,0.0057828
0.24,1.06601,-2.74995,1.06601,8.51615,37.0378,-7.63825,0.00828151
0.26,1.25113,-2.74992,1.25113,9.25602,36.9936,-2.21145,0.0109975
0.28,1.45107,-2.74988,1.45107,9.99704,37.0511,2.87467,0.0139307
0.3,1.66589,-2.74983,1.66589,10.7409,37.1927,7.08173,0.0184698
0.32,1.89555,-2.74974,1.89555,11.4832,37.1175,-3.76007,0.023988
0.34,2.14003,-2.74963,2.14003,12.2241,37.0427,-3.73846,0.0298621
0.36,2.39939,-2.74948,2.39939,12.9676,37.1774,6.73399,0.0372144
0.38,2.67362,-2.74929,2.67362,13.7118,37.2068,1.47084,0.0462898
0.4,2.96268,-2.74903,2.96268,14.453,37.059,-7.39347,0.0558557
0.42,3.26666,-2.74871,3.26666,15.1991,37.3068,12.3915,0.0679771
0.44,3.5855,-2.74829,3.5855,15.9421,37.1493,-7.87451,0.0813408
0.46,3.91923,-2.74778,3.91923,16.6863,37.2101,3.03872,0.0964526
0.48,4.26787,-2.74714,4.26788,17.4323,37.3009,4.54036,0.114068
0.5,4.63139,-2.74637,4.63139,18.1759,37.1807,-6.00959,0.133184
0.52,5.00986,-2.74542,5.00987,18.9236,37.3847,10.2027,0.155499
0.54,5.40322,-2.74427,5.40323,19.6679,37.2149,-8.49301,0.179595
0.56,5.81153,-2.7429,5.81154,20.4155,37.3803,8.26902,0.207055
0.58,6.23477,-2.74126,6.23478,21.1622,37.3351,-2.25764,0.237082
0.6,6.67295,-2.73933,6.67296,21.909,37.3405,0.271009,0.270132
0.62,7.12612,-2.73705,7.12614,22.6588,37.4898,7.46489,0.307026
0.64,7.59421,-2.73439,7.59423,23.4048,37.3011,-9.43624,0.346599
0.66,8.07732,-2.73128,8.07736,24.1561,37.5614,13.0146,0.390801
0.68,8.57541,-2.72769,8.57546,24.9053,37.4597,-5.08239,0.438772
0.7,9.08847,-2.72353,9.08854,25.6538,37.4246,-1.75604,0.490411
0.72,9.61657,-2.71875,9.61666,26.4061,37.6156,9.5478,0.547081
0.74,10.1597,-2.71328,10.1598,27.1586,37.6273,0.58806,0.608648
0.76,10.7178,-2.70704,10.7179,27.9056,37.3512,-13.8048,0.674865
0.78,11.291,-2.69994,11.2912,28.6632,37.8765,26.2645,0.746116
0.8,11.8792,-2.69189,11.8795,29.4123,37.4576,-20.9475,0.823034
0.82,12.4826,-2.68279,12.4829,30.1734,38.0529,29.7665,0.906364
0.84,13.101,-2.67254,13.1014,30.9237,37.5136,-26.9676,0.995718
0.86,13.7345,-2.66101,13.735,31.68,37.8181,15.2262,1.09148
0.88,14.3831,-2.64808,14.3837,32.4375,37.8725,2.71846,1.19402
0.9,15.0468,-2.63363,15.0476,33.1911,37.6813,-9.55637,1.30373
0.92,15.7256,-2.61749,15.7266,33.9509,37.9882,15.3445,1.42097
0.94,16.4196,-2.59953,16.4208,34.7118,38.0486,3.0186,1.54611
0.96,17.1287,-2.57958,17.1302,35.469,37.8594,-9.46036,1.6795
0.98,17.853,-2.55746,17.8548,36.2324,38.1694,15.5011,1.82146
1,18.5924,-2.53298,18.5947,36.9921,37.9829,-9.3271,1.97231
1.02,19.3395,-2.50623,19.3423,37.3789,19.3417,-932.057,2.13074
1.04,20.0868,-2.47737,20.0901,37.3922,0.664079,-933.882,2.29517
1.06,20.8344,-2.4463,20.8383,37.4116,0.969083,15.2502,2.46587
1.08,21.5822,-2.41295,21.5869,37.426,0.72089,-12.4096,2.64265
1.1,22.33,-2.37725,22.3356,37.4347,0.43567,-14.261,2.825
1.12,23.0781,-2.33912,23.0846,37.4534,0.936234,25.0282,3.0127
1.14,23.8263,-2.29849,23.8339,37.462,0.430458,-25.2888,3.20546
1.16,24.5745,-2.2553,24.5834,37.4757,0.684541,12.7041,3.40307
1.18,25.3228,-2.20948,25.3331,37.4851,0.470583,-10.6979,3.60557
1.2,26.0711,-2.16098,26.0829,37.4926,0.372337,-4.91232,3.81188
1.22,26.8195,-2.10975,26.833,37.5044,0.592153,10.9908,4.02149
1.24,27.5677,-2.05576,27.5832,37.5106,0.309491,-14.1331,4.23386
1.26,28.3158,-1.99897,28.3335,37.5113,0.0322355,-13.8628,4.4485
1.28,29.0638,-1.93936,29.0839,37.5198,0.425082,19.6423,4.66428
1.3,29.8116,-1.87693,29.8342,37.5169,-0.142356,-28.3719,4.88039
1.32,30.5591,-1.81169,30.5845,37.517,0.00627385,7.43147,5.09578
1.34,31.3063,-1.74366,31.3348,37.515,-0.10097,-5.3622,5.30937
1.36,32.053,-1.67287,32.085,37.5062,-0.443118,-17.1074,5.52023
1.38,32.7993,-1.59938,32.8348,37.4933,-0.640583,-9.87323,5.72659
1.4,33.5451,-1.52326,33.5845,37.4835,-0.493156,7.37136,5.92754
1.42,34.2903,-1.4446,34.3338,37.4666,-0.84626,-17.6552,6.12219
1.44,35.0348,-1.3635,35.0828,37.4477,-0.941987,-4.78636,6.30769
1.46,35.7787,-1.28011,35.8313,37.4244,-1.16547,-11.1742,6.48438
1.48,36.5217,-1.19455,36.5792,37.3956,-1.43931,-13.6921,6.65011
1.5,37.2639,-1.10699,37.3265,37.3679,-1.38755,2.58799,6.80347
1.52,38.0053,-1.01758,38.0733,37.3401,-1.38996,-0.12016,6.94472
1.54,38.7457,-0.92655,38.8193,37.2973,-2.13682,-37.3431,7.07006
1.56,39.4853,-0.834056,39.5647,37.2686,-1.43806,34.9382,7.18156
1.58,40.2239,-0.740342,40.3092,37.2272,-2.06663,-31.4287,7.27656
1.6,40.9617,-0.645601,41.053,37.1904,-1.84331,11.166,7.35531
1.62,41.6985,-0.550044,41.7961,37.1526,-1.88623,-2.14625,7.41798
1.64,42.4344,-0.453917,42.5381,37.1037,-2.44824,-28.1004,7.46255
1.66,43.1695,-0.357415,43.2795,37.0698,-1.69289,37.7675,7.49174
1.68,43.9037,-0.260765,44.0201,37.0283,-2.07393,-19.0517,7.50294
1.7,44.6372,-0.164161,44.7599,36.9917,-1.83395,11.9989,7.49872
1.72,45.37,-0.0678139,45.499,36.9538,-1.89526,-3.06528,7.47914
1.74,46.102,0.028086,46.2373,36.9137,-2.00133,-5.30365,7.44383
1.76,46.8335,0.123367,46.975,36.8841,-1.48206,25.9634,7.39556
1.78,47.5644,0.217864,47.712,36.8511,-1.64756,-8.27521,7.33337
1.8,48.2949,0.311412,48.4484,36.8218,-1.46551,9.10277,7.25924
1.82,49.025,0.403883,49.1843,36.7956,-1.31128,7.71119,7.1748
1.84,49.7547,0.495145,49.9198,36.7721,-1.17683,6.72279,7.07941
1.86,50.4842,0.585085,50.6547,36.7487,-1.16617,0.532825,6.97552
1.88,51.2135,0.673602,51.3894,36.7325,-0.811204,17.7484,6.86425
1.9,51.9426,0.760627,52.1237,36.7163,-0.813293,-0.104455,6.7457
1.92,52.6717,0.846063,52.8578,36.7033,-0.647199,8.30468,6.62146
1.94,53.4008,0.929867,53.5916,36.6929,-0.518627,6.42864,6.49265
1.96,54.1297,1.01198,54.3252,36.6792,-0.684857,-8.3115,6.36002
1.98,54.8588,1.09238,55.0588,36.6765,-0.136496,27.418,6.22401
2,55.588,1.17101,55.7921,36.6668,-0.486771,-17.5138,6.08587
2.02,56.3172,1.24787,56.5254,36.6637,-0.155784,16.5494,5.94622
2.04,57.0466,1.32294,57.2586,36.6621,-0.0780697,3.88571,5.80566
2.06,57.7761,1.39621,57.9919,36.6621,0.000107293,3.90885,5.66477
2.08,58.5059,1.46769,58.7251,36.6637,0.0797042,3.97984,5.52412
2.1,59.2358,1.53738,59.4584,36.6617,-0.101567,-9.06358,5.38418
2.12,59.9661,1.60532,60.1918,36.6709,0.462311,28.1939,5.24535
2.14,60.6964,1.67148,60.9251,36.6663,-0.232743,-34.7527,5.10799
2.16,61.4272,1.73592,61.6587,36.6777,0.573477,40.311,4.97243
2.18,62.1581,1.79865,62.3923,36.6802,0.124957,-22.426,4.83896
2.2,62.8892,1.8597,63.126,36.6842,0.19925,3.71461,4.70808
2.22,63.6207,1.91911,63.8598,36.6936,0.468452,13.4601,4.57979
2.24,64.3524,1.97692,64.5938,36.6987,0.258561,-10.4945,4.45429
2.26,65.0843,2.03314,65.3279,36.7046,0.291796,1.6617,4.33175
2.28,65.8166,2.08783,66.0622,36.7161,0.577857,14.3031,4.21231
2.3,66.549,2.14102,66.7966,36.7184,0.110826,-23.3516,4.09612
2.32,67.2818,2.19276,67.5312,36.7311,0.63759,26.3382,3.98329
2.34,68.0148,2.24309,68.2659,36.7344,0.165624,-23.5983,3.87391
2.36,68.7481,2.29205,69.0009,36.7482,0.69005,26.2213,3.76808
2.38,69.4816,2.33971,69.7359,36.7526,0.21704,-23.6505,3.66588
2.4,70.2155,2.38608,70.4713,36.7673,0.735124,25.9042,3.56738
2.42,70.9496,2.43122,71.2067,36.7724,0.25793,-23.8597,3.47265
2.44,71.6838,2.47519,71.9423,36.778,0.280548,1.13093,3.38176
2.46,72.4185,2.51803,72.6781,36.794,0.798687,25.9069,3.29478
2.48,73.1533,2.55979,73.4141,36.8004,0.318538,-24.0074,3.21176
2.5,73.8884,2.60052,74.1504,36.8121,0.587286,13.4374,3.13278
2.52,74.6237,2.64028,74.8868,36.8193,0.357893,-11.4696,3.05791
2.54,75.3592,2.67911,75.6233,36.8268,0.37738,0.974343,2.98723
2.56,76.0951,2.71706,76.3602,36.8448,0.896929,25.9774,2.92083
2.58,76.8312,2.75421,77.0972,36.8482,0.171422,-36.2754,2.85881
2.6,77.5675,2.7906,77.8344,36.862,0.691183,25.9881,2.80128
2.62,78.3042,2.82628,78.5719,36.8763,0.716118,1.24675,2.74836
2.64,79.041,2.86133,79.3096,36.8812,0.243524,-23.6297,2.7002
2.66,79.7781,2.89581,80.0475,36.8967,0.771783,26.413,2.65697
2.68,80.5155,2.92977,80.7857,36.9077,0.554081,-10.8851,2.61886
2.7,81.2526,2.96322,81.5236,36.8967,-0.553633,-55.3857,2.57454
2.72,81.9896,2.99605,82.2613,36.8854,-0.563021,-0.469402,2.52818
2.74,82.7271,3.02836,82.9995,36.9105,1.2545,90.8758,2.49069
2.76,83.465,3.06025,83.7381,36.9281,0.882113,-18.6191,2.46095
2.78,84.2033,3.09181,84.4771,36.9497,1.0796,9.87459,2.43843
2.8,84.9419,3.12316,85.2163,36.9613,0.576494,-25.1556,2.423
2.82,85.6808,3.15436,85.9559,36.9801,0.941811,18.2659,2.41556
2.84,86.4202,3.18553,86.6959,37.0011,1.04845,5.33196,2.41482
2.86,87.1598,3.21675,87.4361,37.012,0.54878,-24.9835,2.4207
2.88,87.8998,3.24811,88.1768,37.0349,1.14559,29.8405,2.43394
2.9,88.6401,3.27969,88.9178,37.0471,0.608867,-26.8362,2.45415
2.92,89.3806,3.3116,89.6591,37.0634,0.815539,10.3336,2.48088
2.94,90.1216,3.34391,90.4007,37.0818,0.916959,5.07101,2.5149
2.96,90.8628,3.37672,91.1427,37.1,0.910608,-0.317563,2.55607
2.98,91.6043,3.41012,91.8849,37.1121,0.606875,-15.1866,2.60384
3,92.3462,3.44421,92.6276,37.1325,1.01687,20.4997,2.65945
3.02,93.0884,3.47907,93.3706,37.151,0.926963,-4.49533,2.72206
3.04,93.831,3.51481,94.114,37.1705,0.975657,2.43473,2.79195
3.06,94.5738,3.55154,94.8578,37.1868,0.816375,-7.96409,2.86975
3.08,95.3168,3.58933,95.6018,37.2012,0.718068,-4.91537,2.95453
3.1,96.0603,3.62829,96.3463,37.2245,1.16577,22.385,3.04779
3.12,96.8041,3.66853,97.0911,37.2435,0.950875,-10.7446,3.14967
3.14,97.5482,3.71015,97.8364,37.2616,0.904163,-2.33558,3.25754
3.16,98.2924,3.75325,98.5818,37.2727,0.553961,-17.5101,3.37247
3.18,99.037,3.79793,99.3278,37.3003,1.3821,41.4069,3.49703
3.2,99.7819,3.84428,100.074,37.317,0.834496,-27.3802,3.62854
3.22,100.527,3.8924,100.82,37.3134,-0.180616,-50.7556,3.76666
3.24,101.273,3.94239,101.568,37.3798,3.32119,175.09,3.91123
3.26,102.018,3.99434,102.315,37.3513,-1.42936,-237.528,4.06196
3.28,102.763,4.0483,103.063,37.3745,1.16432,129.684,4.21947
3.3,103.509,4.10437,103.81,37.3931,0.928499,-11.7911,4.38156
3.32,104.255,4.16258,104.559,37.41,0.844482,-4.20086,4.54733
3.34,105,4.22298,105.306,37.3752,-1.73872,-129.16,4.71581
3.36,105.746,4.28559,106.055,37.4378,3.13039,243.456,4.88588
3.38,106.491,4.35042,106.803,37.398,-1.99234,-256.137,5.05622
3.4,107.236,4.41746,107.551,37.4048,0.339791,116.607,5.22537
3.42,107.981,4.48667,108.299,37.4071,0.114942,-11.2424,5.39138
3.44,108.725,4.55797,109.046,37.3552,-2.59312,-135.403,5.55241
3.46,109.469,4.63131,109.794,37.3993,2.20654,239.983,5.70698
3.48,110.212,4.70657,110.541,37.3399,-2.97021,-258.837,5.85351
3.5,110.955,4.78363,111.287,37.3264,-0.678071,114.607,5.9905
3.52,111.697,4.86235,112.034,37.3091,-0.86198,-9.19543,6.11661
3.54,112.438,4.94255,112.779,37.2885,-1.03458,-8.63002,6.23068
3.56,113.178,5.02409,113.524,37.2152,-3.66343,-131.443,6.33181
3.58,113.918,5.10676,114.269,37.2389,1.18645,242.494,6.41934
3.6,114.657,5.19039,115.012,37.1614,-3.87682,-253.164,6.49289
3.62,115.395,5.27479,115.754,37.1324,-1.45037,121.322,6.55235
3.64,116.132,5.35978,116.496,37.0987,-1.68435,-11.6989,6.59618
3.66,116.868,5.44517,117.238,37.0683,-1.51972,8.23136,6.62622
3.68,117.604,5.5308,117.979,37.0391,-1.46158,2.90707,6.64331
3.7,118.339,5.61651,118.719,37.0107,-1.4186,2.14881,6.64824
3.72,119.074,5.70214,119.458,36.9835,-1.35929,2.96554,6.64189
3.74,119.808,5.78756,120.198,36.9579,-1.28119,3.90485,6.6252
3.76,120.542,5.87265,120.936,36.9337,-1.20797,3.66121,6.59914
3.78,121.276,5.95727,121.675,36.9582,1.22344,121.57,6.56356
3.8,122.009,6.04137,122.413,36.8864,-3.5907,-240.707,6.51992
3.82,122.742,6.12483,123.15,36.8681,-0.913127,133.879,6.47009
3.84,123.474,6.20758,123.888,36.8514,-0.834799,3.91637,6.4149
3.86,124.207,6.28956,124.625,36.8858,1.72175,127.827,6.3551
3.88,124.939,6.37073,125.362,36.8207,-3.25879,-249.027,6.29067
3.9,125.672,6.45102,126.099,36.8573,1.82939,254.409,6.22274
3.92,126.405,6.53043,126.836,36.8469,-0.515527,-117.246,6.1525
3.94,127.136,6.60892,127.571,36.788,-2.94789,-121.618,6.08044
3.96,127.869,6.68646,128.308,36.8282,2.00985,247.887,6.00651
3.98,128.601,6.76303,129.044,36.8207,-0.374694,-119.227,5.93155
4,129.334,6.83865,129.781,36.8141,-0.327218,2.37383,5.85593
4.02,130.066,6.91329,130.517,36.8085,-0.280011,2.36036,5.78006
4.04,130.799,6.98697,131.254,36.8535,2.24916,126.459,5.70424
4.06,131.532,7.05968,131.99,36.7997,-2.69022,-246.969,5.62874
4.08,132.265,7.13142,132.727,36.846,2.31487,250.254,5.5538
4.1,132.998,7.20222,133.463,36.7936,-2.62092,-246.79,5.47967
4.12,133.731,7.27203,134.2,36.8408,2.35905,248.999,5.40643
4.14,134.465,7.34101,134.936,36.8396,-0.0609552,-121,5.33435
4.16,135.197,7.409,135.672,36.7882,-2.5693,-125.417,5.26354
4.18,135.931,7.47619,136.409,36.8374,2.46062,251.496,5.19402
4.2,136.665,7.5424,137.146,36.8364,-0.049952,-125.529,5.12597
4.22,137.399,7.60782,137.882,36.8368,0.0205269,3.52395,5.05958
4.24,138.133,7.67244,138.62,36.8868,2.49985,123.966,4.99474
4.26,138.867,7.73618,139.357,36.837,-2.4884,-249.413,4.93155
4.28,139.601,7.79913,140.094,36.8383,0.0608308,127.462,4.8703
4.3,140.336,7.86129,140.83,36.8393,0.0521788,-0.432599,4.8109
4.32,141.071,7.92276,141.568,36.8906,2.56646,125.714,4.75335
4.34,141.805,7.98354,142.305,36.8425,-2.40489,-248.567,4.69773
4.36,142.541,8.04353,143.043,36.8947,2.6098,250.734,4.64446
4.38,143.276,8.10293,143.781,36.8973,0.130633,-123.958,4.59329
4.4,144.011,8.16173,144.518,36.8396,-2.88696,-150.88,4.53983
4.42,144.745,8.21952,145.254,36.8198,-0.990471,94.8244,4.45883
4.44,145.477,8.27588,145.989,36.7228,-4.8479,-192.872,4.33953
4.46,146.208,8.33043,146.721,36.6293,-4.67817,8.4868,4.18392
4.48,146.937,8.38258,147.452,36.5377,-4.57932,4.94236,3.99364
4.5,147.664,8.43195,148.181,36.4446,-4.65353,-3.71061,3.76849
4.52,148.39,8.47827,148.909,36.4106,-1.70083,147.635,3.51248
4.54,149.115,8.52096,149.635,36.2794,-6.55727,-242.822,3.22721
4.56,149.839,8.55986,150.36,36.2521,-1.36561,259.583,2.91421
4.58,150.562,8.59458,151.083,36.1785,-3.6797,-115.705,2.57499
4.6,151.284,8.62485,151.806,36.1591,-0.974027,135.284,2.21105
4.62,152.005,8.65029,152.527,36.0439,-5.75689,-239.143,1.82389
4.64,152.725,8.67064,153.248,36.0335,-0.52278,261.706,1.41499
4.66,153.444,8.68581,153.967,35.9784,-2.753,-111.511,0.985869
4.68,154.163,8.69532,154.686,35.9251,-2.66494,4.40297,0.536612
4.7,154.88,8.6992,155.404,35.8812,-2.19779,23.3574,0.0701653
4.72,155.597,8.69707,156.12,35.8443,-1.84302,17.7389,-0.411484
4.74,156.313,8.68884,156.837,35.8141,-1.50753,16.7744,-0.906646
4.76,157.029,8.67444,157.553,35.791,-1.15839,17.4571,-1.41357
4.78,157.743,8.65356,158.267,35.7253,-3.283,-106.23,-1.93047
4.8,158.458,8.62623,158.982,35.7669,2.07824,268.062,-2.45558
4.82,159.172,8.59234,159.697,35.7157,-2.55796,-231.81,-2.98726
4.84,159.885,8.5517,160.411,35.725,0.465256,151.161,-3.52267
4.86,160.597,8.5045,161.125,35.6921,-1.64783,-105.654,-4.05973
4.88,161.31,8.45064,161.839,35.7177,1.28054,146.418,-4.59629
4.9,162.021,8.39002,162.553,35.7023,-0.766579,-102.356,-5.13016
4.92,162.733,8.3228,163.268,35.7469,2.2288,149.769,-5.65813
4.94,163.444,8.24907,163.983,35.7493,0.118305,-105.525,-6.17814
4.96,164.155,8.16891,164.699,35.7597,0.519777,20.0736,-6.6879
4.98,164.866,8.08239,165.415,35.8279,3.41198,144.61,-7.18499
5,165.577,7.98968,166.132,35.8571,1.45645,-97.7766,-7.66568
5.02,166.288,7.89102,166.85,35.8949,1.89372,21.8633,-8.12661
5.04,166.999,7.78668,167.569,35.9358,2.04519,7.57339,-8.56665
5.06,167.711,7.67673,168.289,35.9843,2.42244,18.8624,-8.98328
5.08,168.423,7.5617,169.01,36.0924,5.40535,149.146,-9.37112
5.1,169.135,7.44174,169.733,36.1084,0.800372,-230.249,-9.72745
5.12,169.849,7.31721,170.457,36.2223,5.69631,244.797,-10.0518
5.14,170.564,7.18862,171.184,36.34,5.88439,9.40365,-10.3411
5.16,171.28,7.0563,171.911,36.3785,1.92609,-197.915,-10.5861
5.18,171.998,6.92078,172.642,36.5517,8.65861,336.626,-10.7904
5.2,172.717,6.78261,173.374,36.5789,1.35986,-364.937,-10.9514
5.22,173.439,6.64225,174.11,36.7745,9.78169,421.091,-11.0581
5.24,174.162,6.50039,174.847,36.8569,4.11618,-283.275,-11.1142
5.26,174.888,6.35767,175.586,36.9851,6.41061,114.722,-11.1184
5.28,175.617,6.21469,176.329,37.1386,7.67881,63.4097,-11.0572
5.3,176.348,6.07232,177.075,37.2686,6.49701,-59.0898,-10.9373
5.32,177.084,5.93132,177.824,37.4502,9.07988,129.143,-10.7546
5.34,177.823,5.79248,178.576,37.6019,7.5836,-74.8142,-10.4979
5.36,178.566,5.65681,179.331,37.7748,8.64678,53.1593,-10.1757
5.38,179.314,5.52517,180.09,37.9694,9.72911,54.1161,-9.77605
5.4,180.067,5.39863,180.854,38.1536,9.20959,-25.9757,-9.30057
5.42,180.824,5.27828,181.62,38.3305,8.84721,-18.1192,-8.74989
5.44,181.586,5.16517,182.391,38.5307,10.0087,58.0754,-8.11237
5.46,182.353,5.06056,183.165,38.6983,8.38091,-81.3901,-7.40031
5.48,183.125,4.96557,183.943,38.9033,10.2516,93.5335,-6.59745
5.5,183.903,4.88153,184.725,39.1258,11.1232,43.5795,-5.71751
5.52,184.686,4.80966,185.512,39.3236,9.88916,-61.7008,-4.7513
5.54,185.474,4.75127,186.302,39.5088,9.26336,-31.29,-3.70635
5.56,186.267,4.70759,187.096,39.7039,9.75472,24.5679,-2.58213
5.58,187.064,4.67988,187.893,39.8507,7.33775,-120.848,-1.38272
5.6,187.865,4.66932,188.694,40.0472,9.82587,124.406,-0.114274
5.62,188.669,4.67697,189.498,40.2041,7.84597,-98.9954,1.22021
5.64,189.475,4.70384,190.305,40.3554,7.56173,-14.2117,2.60987
5.66,190.283,4.75078,191.115,40.4709,5.7767,-89.2517,4.05111
5.68,191.091,4.81845,191.925,40.5289,2.90102,-143.784,5.53036
5.7,191.899,4.90739,192.738,40.651,6.1015,160.024,7.04252
5.72,192.705,5.01788,193.552,40.6673,0.819072,-264.122,8.57367
5.74,193.508,5.15005,194.365,40.6933,1.29605,23.8488,10.1164
5.76,194.307,5.30382,195.179,40.6693,-1.19918,-124.761,11.6593
5.78,195.102,5.47889,195.993,40.6945,1.26313,123.116,13.192
5.8,195.89,5.67484,196.805,40.6282,-3.31841,-229.077,14.7073
5.82,196.672,5.89107,197.616,40.5585,-3.48189,-8.17407,16.195
5.84,197.447,6.1268,198.426,40.4895,-3.45119,1.53519,17.648
5.86,198.214,6.38129,199.235,40.4293,-3.00868,22.1253,19.0638
5.88,198.972,6.6535,200.04,40.2525,-8.84232,-291.682,20.4282
5.9,199.722,6.94257,200.844,40.189,-3.17581,283.326,21.7457
5.92,200.462,7.24751,201.644,40.0273,-8.08308,-245.363,23.0118
5.94,201.193,7.5672,202.442,39.8925,-6.74069,67.1192,24.217
5.96,201.915,7.90078,203.237,39.7741,-5.9199,41.0397,25.3683
5.98,202.628,8.24727,204.03,39.6065,-8.38148,-123.079,26.4646
6,203.331,8.60556,204.819,39.459,-7.37558,50.2952,27.4971
6.02,204.026,8.97483,205.606,39.3667,-4.61127,138.215,28.473
6.04,204.712,9.35432,206.39,39.1844,-9.114,-225.136,29.3939
6.06,205.39,9.74321,207.172,39.0845,-4.99845,205.777,30.2606
6.08,206.06,10.1404,207.951,38.9571,-6.3669,-68.4224,31.0677
6.1,206.722,10.5454,208.727,38.798,-7.95572,-79.4408,31.821
6.12,207.377,10.9575,209.5,38.6713,-6.33527,81.0226,32.5232
6.14,208.025,11.376,210.272,38.5821,-4.46295,93.6159,33.1756
6.16,208.666,11.8001,211.04,38.4387,-7.16806,-135.256,33.7791
6.18,209.301,12.2295,211.807,38.3307,-5.39917,88.4447,34.3339
6.2,209.93,12.6634,212.571,38.2016,-6.45743,-52.9131,34.8379
6.22,210.554,13.1012,213.333,38.1149,-4.33461,106.141,35.2964
6.24,211.172,13.5427,214.093,37.9804,-6.72491,-119.515,35.7103
6.26,211.787,13.987,214.851,37.9098,-3.52814,159.838,36.08
6.28,212.396,14.4338,215.607,37.7928,-5.85033,-116.109,36.4061
6.3,213.001,14.8826,216.36,37.6602,-6.63204,-39.0857,36.6889
