"time","x","y","position","velocity","acceleration","jerk","heading"
0,30,162.75,0,0,0,0,0
0.02,30.0086,162.75,0.00859986,0.429993,21.4996,1074.98,2.98521e-06
0.04,30.0296,162.75,0.0295995,1.04998,30.9995,474.992,1.02842e-05
0.06,30.0667,162.75,0.0666989,1.85497,40.2493,462.493,2.31414e-05
0.08,30.1184,162.75,0.118398,2.58496,36.4994,-187.497,4.10976e-05
0.1,30.185,162.75,0.184997,3.32994,37.2494,37.4997,6.42111e-05
0.12,30.2664,162.75,0.266396,4.06993,36.9994,-12.4998,9.24547e-05
0.14,30.3626,162.75,0.362594,4.80992,36.9994,-3.95972e-05,0.000125835
0.16,30.4736,162.75,0.473592,5.54991,36.9994,-1.79989e-05,0.000164355
0.18,30.5994,162.75,0.599388,6.2898,36.9946,-0.240009,0.000248019
0.2,30.74,162.75,0.739981,7.02965,36.9924,-0.111412,0.000395397
0.22,30.8954,162.75,0.895373,7.76961,36.9981,0.289131,0.000558297
0.24,31.0656,162.75,1.06556,8.50957,36.9981,9.59939e-05,0.000736703
0.26,31.2505,162.75,1.25055,9.24925,36.984,-0.708639,0.00104873
0.28,31.4503,162.75,1.45033,9.98916,36.9952,0.563888,0.00140039
0.3,31.6649,162.75,1.66491,10.729,36.9936,-0.083136,0.00180554
0.32,31.8943,162.75,1.89429,11.4686,36.9803,-0.664992,0.00237502
0.34,32.1385,162.75,2.13846,12.2085,36.9956,0.765545,0.00298123
0.36,32.3974,162.75,2.39742,12.9481,36.9755,-1.00355,0.00379144
0.38,32.6712,162.75,2.67118,13.6879,36.9916,0.803102,0.00467179
0.4,32.9597,162.75,2.95972,14.4273,36.9721,-0.97169,0.00578424
0.42,33.2631,162.75,3.26306,15.1671,36.9885,0.819001,0.00699228
0.44,33.5812,162.75,3.58119,15.9064,36.965,-1.17424,0.00849163
0.46,33.9141,162.75,3.91411,16.646,36.9808,0.788283,0.0101509
0.48,34.2618,162.75,4.26182,17.3854,36.9706,-0.511823,0.0120554
0.5,34.6243,162.75,4.62432,18.1247,36.9637,-0.342395,0.0142622
0.52,35.0016,162.75,5.0016,18.8641,36.9704,0.333576,0.0167157
0.54,35.3937,162.751,5.39367,19.6034,36.9666,-0.189777,0.0194741
0.56,35.8005,162.751,5.80051,20.3424,36.9483,-0.913353,0.0226365
0.58,36.2221,162.751,6.22215,21.0816,36.9585,0.509173,0.0261446
0.6,36.6586,162.751,6.65856,21.8207,36.954,-0.223784,0.0300357
0.62,37.1098,162.751,7.10975,22.5597,36.9494,-0.230383,0.0343482
0.64,37.5757,162.752,7.57572,23.2986,36.9459,-0.179088,0.0391343
0.66,38.0565,162.752,8.05647,24.0372,36.9326,-0.662349,0.0444597
0.68,38.552,162.752,8.55199,24.7759,36.9364,0.191686,0.0503148
0.7,39.0623,162.753,9.06228,25.5146,36.9339,-0.125373,0.0567409
0.72,39.5873,162.753,9.58734,26.2531,36.924,-0.496197,0.0637799
0.74,40.1272,162.754,10.1272,26.9916,36.9236,-0.019295,0.0714747
0.76,40.6818,162.755,10.6818,27.7299,36.916,-0.379156,0.0798687
0.78,41.2511,162.756,11.2511,28.4681,36.9107,-0.26742,0.0890065
0.8,41.8353,162.757,11.8353,29.2062,36.9053,-0.269231,0.098933
0.82,42.4341,162.758,12.4341,29.9442,36.8998,-0.274641,0.109694
0.84,43.0478,162.759,13.0478,30.682,36.8903,-0.476835,0.121369
0.86,43.6762,162.76,13.6762,31.4197,36.8827,-0.377849,0.134021
0.88,44.3193,162.762,14.3193,32.1574,36.8866,0.195347,0.147666
0.9,44.9772,162.764,14.9772,32.8949,36.8749,-0.585674,0.162352
0.92,45.6499,162.766,15.6499,33.6323,36.8688,-0.305587,0.17813
0.94,46.3372,162.768,16.3373,34.3694,36.8543,-0.725578,0.195121
0.96,47.0394,162.77,17.0394,35.1063,36.846,-0.413618,0.213394
0.98,47.7562,162.773,17.7563,35.8434,36.8569,0.543617,0.232931
1,48.4878,162.776,18.4879,36.5801,36.8352,-1.08579,0.253839
1.02,49.2268,162.78,19.2268,36.9472,18.3558,-923.969,0.276046
1.04,49.9655,162.784,19.9656,36.9399,-0.365189,-936.05,0.299213
1.06,50.7044,162.788,20.7044,36.9424,0.120765,24.2977,0.323457
1.08,51.4432,162.792,21.4432,36.9398,-0.12959,-12.5178,0.348781
1.1,52.1819,162.797,22.182,36.9377,-0.103829,1.28807,0.375097
1.12,52.9206,162.802,22.9207,36.9349,-0.13991,-1.80406,0.402579
1.14,53.6592,162.807,23.6593,36.9323,-0.12755,0.617994,0.431124
1.16,54.3978,162.813,24.3979,36.9302,-0.104771,1.13898,0.460697
1.18,55.1362,162.819,25.1364,36.9222,-0.399861,-14.7545,0.491519
1.2,55.8747,162.825,25.8749,36.9247,0.124482,26.2171,0.523387
1.22,56.6131,162.832,26.6133,36.9225,-0.112193,-11.8337,0.556373
1.24,57.3514,162.84,27.3516,36.915,-0.372357,-13.0082,0.59059
1.26,58.0897,162.848,28.09,36.9175,0.120633,24.6495,0.625885
1.28,58.8278,162.856,28.8282,36.9096,-0.395175,-25.7904,0.66239
1.3,59.566,162.865,29.5664,36.9122,0.13351,26.4342,0.700105
1.32,60.304,162.874,30.3045,36.9046,-0.383412,-25.8461,0.738932
1.34,61.0421,162.884,31.0427,36.9071,0.125245,25.4328,0.779066
1.36,61.78,162.894,31.7806,36.8992,-0.392167,-25.8706,0.820385
1.38,62.5179,162.905,32.5186,36.8972,-0.103236,14.4465,0.86286
1.4,63.2557,162.916,33.2565,36.8938,-0.166547,-3.16555,0.906723
1.42,63.9934,162.928,33.9943,36.8918,-0.101299,3.26242,0.951754
1.44,64.7311,162.941,34.7321,36.8896,-0.108479,-0.359001,0.998041
1.46,65.4687,162.954,35.4698,36.8864,-0.163429,-2.7475,1.04569
1.48,66.2063,162.967,36.2075,36.8844,-0.098503,3.24629,1.09454
1.5,66.9437,162.982,36.945,36.8771,-0.365352,-13.3424,1.14476
1.52,67.6811,162.997,37.6826,36.8789,0.0903586,22.7855,1.19631
1.54,68.4184,163.012,38.42,36.8709,-0.398734,-24.4546,1.2491
1.56,69.1555,163.029,39.1574,36.8696,-0.0682774,16.5229,1.30336
1.58,69.8927,163.046,39.8948,36.8664,-0.15719,-4.44563,1.35893
1.6,70.6298,163.064,40.632,36.8645,-0.0968679,3.01611,1.4158
1.62,71.3668,163.083,41.3693,36.862,-0.121089,-1.21104,1.4742
1.64,72.1036,163.102,42.1064,36.8539,-0.405906,-14.2409,1.5339
1.66,72.8404,163.122,42.8434,36.8518,-0.106906,14.95,1.59504
1.68,73.577,163.143,43.5804,36.8496,-0.108329,-0.0711496,1.65766
1.7,74.3137,163.165,44.3173,36.8479,-0.0881543,1.00875,1.72162
1.72,75.0502,163.188,45.0543,36.8456,-0.112377,-1.21112,1.78715
1.74,75.7866,163.211,45.791,36.8372,-0.422666,-15.5145,1.85412
1.76,76.5229,163.235,46.5277,36.837,-0.00582261,20.8422,1.92249
1.78,77.2592,163.26,47.2644,36.833,-0.200388,-9.72826,1.99253
1.8,77.9953,163.286,48.0009,36.8264,-0.33289,-6.6251,2.06398
1.82,78.7313,163.313,48.7374,36.8244,-0.0964567,11.8217,2.13698
1.84,79.4672,163.341,49.4739,36.8224,-0.101482,-0.25127,2.2116
1.86,80.2029,163.37,50.2102,36.8158,-0.328718,-11.3618,2.28768
1.88,80.9386,163.4,50.9465,36.8138,-0.104322,11.2198,2.36546
1.9,81.6741,163.43,51.6826,36.807,-0.33633,-11.6004,2.44482
1.92,82.4095,163.463,52.4188,36.8077,0.0338388,18.5085,2.5257
1.94,83.1448,163.496,53.1548,36.8033,-0.218391,-12.6115,2.6084
1.96,83.88,163.53,53.8908,36.7969,-0.320156,-5.08822,2.69263
1.98,84.6151,163.565,54.6267,36.7952,-0.0886314,11.5762,2.77857
2,85.35,163.602,55.3625,36.7908,-0.216452,-6.39104,2.86626
2.02,86.0847,163.638,56.0981,36.7821,-0.439273,-11.1411,2.95553
2.04,86.8193,163.677,56.8338,36.7826,0.0275786,23.3426,3.04671
2.06,87.5538,163.717,57.5693,36.7763,-0.316585,-17.2082,3.13956
2.08,88.2882,163.758,58.3048,36.7748,-0.0719622,12.2311,3.23415
2.1,89.0223,163.799,59.0402,36.768,-0.339789,-13.3913,3.33066
2.12,89.7563,163.843,59.7755,36.7648,-0.160623,8.95831,3.42885
2.14,90.4901,163.888,60.5106,36.7581,-0.334392,-8.68847,3.529
2.16,91.2238,163.933,61.2458,36.7568,-0.0658676,13.4262,3.63098
2.18,91.9573,163.981,61.9807,36.7489,-0.396203,-16.5168,3.73475
2.2,92.6906,164.03,62.7157,36.7471,-0.0881309,15.4036,3.84062
2.22,93.4237,164.079,63.4505,36.7412,-0.294596,-10.3233,3.94826
2.24,94.1567,164.13,64.1852,36.7347,-0.324781,-1.50925,4.05795
2.26,94.8894,164.184,64.9199,36.7356,0.0451356,18.4958,4.16962
2.28,95.622,164.237,65.6544,36.7261,-0.476124,-26.063,4.28318
2.3,96.3544,164.293,66.3889,36.7232,-0.14647,16.4827,4.39898
2.32,97.0864,164.35,67.1232,36.7164,-0.340159,-9.68447,4.51667
2.34,97.8184,164.409,67.8575,36.7151,-0.0651532,13.7503,4.63655
2.36,98.5501,164.469,68.5916,36.7041,-0.549343,-24.2095,4.75853
2.38,99.2815,164.53,69.3257,36.7025,-0.0817562,23.3794,4.88255
2.4,100.013,164.593,70.0598,36.7053,0.142446,11.2101,5.00893
2.42,100.744,164.659,70.7935,36.6894,-0.79816,-47.0303,5.13732
2.44,101.475,164.725,71.5273,36.6881,-0.0621198,36.802,5.2681
2.46,102.205,164.794,72.2612,36.692,0.196597,12.9359,5.40107
2.48,102.935,164.863,72.994,36.6415,-2.52525,-136.092,5.5363
2.5,103.665,164.935,73.7279,36.695,2.67547,260.036,5.67397
2.52,104.394,165.008,74.4609,36.65,-2.25262,-246.404,5.81379
2.54,105.124,165.083,75.194,36.6537,0.187709,122.016,5.95627
2.56,105.853,165.16,75.9271,36.6588,0.252678,3.24847,6.10098
2.58,106.582,165.24,76.6604,36.6634,0.227642,-1.25179,6.24824
2.6,107.31,165.32,77.3927,36.6131,-2.51194,-136.979,6.39799
2.62,108.038,165.402,78.126,36.668,2.74584,262.889,6.55018
2.64,108.766,165.487,78.8586,36.6289,-1.95521,-235.052,6.7051
2.66,109.492,165.573,79.5902,36.5795,-2.47363,-25.9211,6.86238
2.68,110.22,165.662,80.323,36.64,3.02526,274.944,7.02261
2.7,110.946,165.752,81.0548,36.5906,-2.46949,-274.738,7.18529
2.72,111.672,165.845,81.7869,36.6024,0.593368,153.143,7.35084
2.74,112.398,165.94,82.519,36.6088,0.320207,-13.6581,7.51907
2.76,113.124,166.037,83.2513,36.6152,0.319091,-0.0558101,7.6901
2.78,113.849,166.136,83.9828,36.572,-2.16033,-123.971,7.86406
2.8,114.573,166.237,84.7144,36.5791,0.354927,125.763,8.04075
2.82,115.297,166.341,85.4452,36.543,-1.80528,-108.01,8.2206
2.84,116.02,166.446,86.1762,36.5509,0.393789,109.953,8.40314
2.86,116.743,166.554,86.9074,36.5574,0.325436,-3.41768,8.58905
2.88,117.466,166.665,87.6388,36.5731,0.787109,23.0837,8.77773
2.9,118.188,166.777,88.3695,36.5309,-2.11293,-145.002,8.96979
2.92,118.91,166.892,89.1002,36.5393,0.423071,126.8,9.1648
2.94,119.631,167.01,89.8305,36.5137,-1.2801,-85.1588,9.3632
2.96,120.351,167.13,90.5608,36.5143,0.0291808,65.4643,9.56475
2.98,121.071,167.253,91.2916,36.5394,1.25353,61.2177,9.7697
3,121.791,167.377,92.0214,36.4906,-2.43831,-184.592,9.97797
3.02,122.508,167.506,92.7507,36.4662,-1.21893,60.9689,10.1903
3.04,123.226,167.636,93.4803,36.4771,0.541123,88.0026,10.4055
3.06,123.944,167.769,94.2102,36.4967,0.980809,21.9843,10.6238
3.08,124.661,167.905,94.9395,36.4654,-1.566,-127.341,10.8462
3.1,125.376,168.044,95.6682,36.435,-1.52082,2.25911,11.0726
3.12,126.091,168.185,96.3971,36.4465,0.575807,104.831,11.3022
3.14,126.806,168.329,97.1267,36.4775,1.55058,48.7388,11.5352
3.16,127.519,168.476,97.8545,36.3889,-4.42686,-298.872,11.7726
3.18,128.233,168.627,98.5838,36.4686,3.98378,420.532,12.0142
3.2,128.944,168.779,99.3115,36.3832,-4.27029,-412.703,12.2593
3.22,129.655,168.936,100.04,36.417,1.69007,298.018,12.508
3.24,130.366,169.095,100.768,36.3899,-1.35402,-152.205,12.7612
3.26,131.074,169.257,101.495,36.3633,-1.33258,1.07218,13.019
3.28,131.783,169.422,102.223,36.3879,1.23159,128.209,13.2806
3.3,132.491,169.591,102.95,36.3758,-0.604739,-91.8166,13.5461
3.32,133.197,169.763,103.677,36.3521,-1.18815,-29.1704,13.8159
3.34,133.902,169.938,104.404,36.3263,-1.28658,-4.92156,14.0911
3.36,134.606,170.117,105.13,36.3169,-0.471519,40.753,14.3703
3.38,135.31,170.3,105.857,36.3565,1.98174,122.663,14.6537
3.4,136.012,170.485,106.583,36.2877,-3.44089,-271.131,14.9413
3.42,136.712,170.673,107.308,36.2641,-1.1794,113.074,15.2347
3.44,137.413,170.867,108.035,36.3188,2.73342,195.641,15.5327
3.46,138.111,171.063,108.76,36.2519,-3.34527,-303.934,15.8352
3.48,138.808,171.262,109.485,36.2819,1.5024,242.383,16.1422
3.5,139.504,171.465,110.21,36.243,-1.94456,-172.348,16.4543
3.52,140.198,171.673,110.935,36.2377,-0.267024,83.8767,16.7723
3.54,140.892,171.883,111.659,36.2216,-0.805692,-26.9334,17.0951
3.56,141.584,172.099,112.384,36.236,0.719505,76.2598,17.4226
3.58,142.273,172.317,113.108,36.1735,-3.12552,-192.251,17.7551
3.6,142.962,172.54,113.831,36.1879,0.721655,192.359,18.0935
3.62,143.649,172.767,114.555,36.1884,0.0233256,-34.9165,18.4378
3.64,144.334,172.997,115.278,36.1447,-2.18109,-110.221,18.7871
3.66,145.018,173.233,116.001,36.1653,1.02623,160.366,19.1417
3.68,145.7,173.471,116.723,36.1072,-2.90153,-196.388,19.5016
3.7,146.38,173.715,117.446,36.1454,1.90657,240.405,19.8677
3.72,147.059,173.962,118.168,36.0872,-2.90951,-240.804,20.2401
3.74,147.736,174.215,118.891,36.1308,2.18223,254.587,20.618
3.76,148.41,174.471,119.613,36.0943,-1.82655,-200.439,21.0015
3.78,149.082,174.732,120.333,36.0125,-4.09098,-113.222,21.3906
3.8,149.753,174.997,121.055,36.0889,3.82145,395.622,21.7858
3.82,150.421,175.266,121.775,36.0253,-3.18215,-350.18,22.1881
3.84,151.087,175.541,122.495,36.0132,-0.603018,128.956,22.5962
3.86,151.751,175.82,123.215,36.0029,-0.517036,4.29909,23.0102
3.88,152.413,176.104,123.935,35.994,-0.443086,3.69753,23.4303
3.9,153.072,176.393,124.655,35.9876,-0.321185,6.09505,23.8563
3.92,153.729,176.686,125.374,35.9603,-1.36161,-52.0214,24.2892
3.94,154.383,176.984,126.093,35.9303,-1.5021,-7.02424,24.729
3.96,155.034,177.288,126.812,35.9503,0.999178,125.064,25.175
3.98,155.683,177.595,127.53,35.8848,-3.273,-213.609,25.6272
4,156.329,177.909,128.248,35.9093,1.22434,224.867,26.0857
4.02,156.973,178.227,128.966,35.9143,0.248599,-48.7868,26.5505
4.04,157.613,178.55,129.683,35.8312,-4.15547,-220.204,27.0219
4.06,158.25,178.878,130.4,35.8606,1.47107,281.327,27.5007
4.08,158.885,179.212,131.117,35.8508,-0.489305,-98.0187,27.9859
4.1,159.516,179.551,131.833,35.8206,-1.50917,-50.9933,28.4774
4.12,160.144,179.895,132.549,35.7925,-1.40654,5.13167,28.9753
4.14,160.769,180.245,133.265,35.8154,1.14726,127.69,29.4796
4.16,161.389,180.6,133.98,35.7494,-3.30154,-222.44,29.9902
4.18,162.008,180.959,134.696,35.7713,1.09492,219.823,30.5076
4.2,162.621,181.325,135.41,35.7167,-2.72877,-191.185,31.032
4.22,163.233,181.696,136.125,35.7448,1.40472,206.675,31.5627
4.24,163.839,182.074,136.839,35.7005,-2.21826,-181.149,32.0995
4.26,164.442,182.456,137.553,35.6913,-0.45863,87.9813,32.6426
4.28,165.042,182.843,138.267,35.7122,1.04807,75.335,33.1917
4.3,165.636,183.237,138.98,35.6528,-2.97457,-201.132,33.7468
4.32,166.227,183.636,139.693,35.639,-0.687662,114.346,34.3078
4.34,166.814,184.04,140.406,35.6273,-0.583922,5.18704,34.8753
4.36,167.396,184.45,141.118,35.6201,-0.360244,11.1839,35.4489
4.38,167.975,184.867,141.831,35.6473,1.3596,85.9924,36.0279
4.4,168.548,185.288,142.543,35.5788,-3.42464,-239.212,36.6125
4.42,169.117,185.715,143.254,35.5846,0.288455,185.655,37.2023
4.44,169.682,186.149,143.966,35.5846,0.00094629,-14.3754,37.7973
4.46,170.241,186.587,144.676,35.5283,-2.81337,-140.716,38.3973
4.48,170.796,187.032,145.388,35.5774,2.45288,263.313,39.0021
4.5,171.347,187.483,146.099,35.5606,-0.839095,-164.599,39.6116
4.52,171.891,187.938,146.809,35.4766,-4.20269,-168.18,40.2262
4.54,172.431,188.399,147.52,35.5399,3.16632,368.45,40.8449
4.56,172.966,188.867,148.23,35.4995,-2.02012,-259.322,41.4676
4.58,173.496,189.34,148.94,35.5019,0.121925,107.102,42.094
4.6,174.019,189.819,149.65,35.5055,0.181088,2.95813,42.724
4.62,174.538,190.303,150.359,35.484,-1.0764,-62.8744,43.3572
4.64,175.051,190.793,151.069,35.4647,-0.968118,5.41408,43.9934
4.66,175.558,191.289,151.778,35.4506,-0.700947,13.3586,44.6324
4.68,176.06,191.789,152.487,35.4423,-0.418234,14.1356,45.2739
4.7,176.557,192.296,153.196,35.4741,1.59051,100.437,45.9177
4.72,177.047,192.808,153.905,35.4401,-1.70094,-164.572,46.5635
4.74,177.531,193.326,154.614,35.4502,0.505959,110.345,47.2108
4.76,178.01,193.849,155.323,35.4609,0.536301,1.51712,47.8594
4.78,178.482,194.377,156.031,35.4092,-2.58484,-156.057,48.5089
4.8,178.95,194.91,156.741,35.4664,2.86052,272.268,49.1591
4.82,179.409,195.45,157.449,35.4311,-1.76527,-231.289,49.8096
4.84,179.864,195.994,158.158,35.4606,1.47417,161.972,50.4602
4.86,180.312,196.543,158.866,35.3994,-3.05767,-226.592,51.1105
4.88,180.754,197.097,159.576,35.4775,3.90155,347.961,51.7602
4.9,181.19,197.656,160.284,35.4201,-2.87099,-338.627,52.4089
4.92,181.619,198.22,160.993,35.4472,1.35733,211.416,53.0563
4.94,182.042,198.789,161.702,35.4404,-0.340338,-84.8832,53.7022
4.96,182.458,199.363,162.411,35.4691,1.43753,88.8932,54.3461
4.98,182.869,199.942,163.121,35.4733,0.208075,-61.4726,54.9879
5,183.272,200.525,163.83,35.4423,-1.54994,-87.9007,55.6272
5.02,183.669,201.112,164.539,35.4576,0.763392,115.667,56.2638
5.04,184.06,201.705,165.249,35.5063,2.43751,83.7059,56.8973
5.06,184.445,202.301,165.959,35.4903,-0.803057,-162.028,57.5276
5.08,184.822,202.903,166.669,35.496,0.287292,54.5174,58.154
5.1,185.193,203.508,167.378,35.4751,-1.04425,-66.5772,58.7763
5.12,185.559,204.117,168.089,35.5432,3.40451,222.438,59.3944
5.14,185.917,204.731,168.8,35.5217,-1.07669,-224.06,60.0083
5.16,186.269,205.348,169.51,35.5314,0.487935,78.2311,60.6175
5.18,186.615,205.97,170.222,35.5699,1.92179,71.6926,61.222
5.2,186.954,206.595,170.932,35.5447,-1.25805,-158.992,61.8215
5.22,187.287,207.223,171.644,35.5681,1.16971,121.388,62.4158
5.24,187.613,207.856,172.356,35.5973,1.46111,14.5702,63.0043
5.26,187.933,208.492,173.068,35.6094,0.605278,-42.7918,63.5867
5.28,188.247,209.131,173.78,35.6016,-0.393874,-49.9576,64.1634
5.3,188.554,209.775,174.493,35.6432,2.08128,123.758,64.7342
5.32,188.855,210.421,175.206,35.6441,0.044394,-101.844,65.299
5.34,189.15,211.071,175.919,35.67,1.29621,62.5906,65.8576
5.36,189.439,211.723,176.632,35.6533,-0.837325,-106.676,66.41
5.38,189.72,212.378,177.346,35.6926,1.96641,140.187,66.9557
5.4,189.997,213.037,178.06,35.7048,0.611028,-67.7691,67.4939
5.42,190.268,213.698,178.775,35.7249,1.00289,19.5933,68.0256
5.44,190.532,214.363,179.49,35.7675,2.13432,56.5714,68.5507
5.46,190.79,215.029,180.205,35.7488,-0.937124,-153.572,69.0691
5.48,191.043,215.698,180.92,35.7515,0.133232,53.5178,69.5807
5.5,191.29,216.371,181.636,35.8208,3.4657,166.624,70.0856
5.52,191.531,217.044,182.352,35.7685,-2.6141,-303.99,70.5821
5.54,191.767,217.721,183.068,35.827,2.92378,276.894,71.0716
5.56,191.996,218.4,183.785,35.8406,0.680801,-112.149,71.5543
5.58,192.22,219.081,184.502,35.8572,0.827936,7.35676,72.0301
5.6,192.438,219.765,185.22,35.8764,0.963075,6.75699,72.499
5.62,192.652,220.451,185.938,35.9139,1.87542,45.6174,72.9607
5.64,192.859,221.138,186.656,35.8942,-0.988429,-143.193,73.4139
5.66,193.061,221.827,187.374,35.9207,1.32964,115.903,73.8603
5.68,193.259,222.519,188.094,35.9637,2.1485,40.9431,74.2999
5.7,193.451,223.212,188.813,35.9604,-0.163549,-115.603,74.7327
5.72,193.638,223.907,189.533,35.9942,1.68737,92.5458,75.1587
5.74,193.82,224.604,190.253,35.9994,0.260314,-71.3527,75.576
5.76,193.997,225.302,190.973,36.002,0.131878,-6.42177,75.9864
5.78,194.168,226.001,191.693,35.9938,-0.413265,-27.2572,76.3902
5.8,194.336,226.703,192.414,36.0598,3.29951,185.639,76.7874
5.82,194.499,227.405,193.135,36.0668,0.350986,-147.426,77.1781
5.84,194.656,228.109,193.857,36.0702,0.169008,-9.09887,77.56
5.86,194.809,228.816,194.579,36.1405,3.51537,167.318,77.9354
5.88,194.958,229.522,195.302,36.1137,-1.33748,-242.642,78.3045
5.9,195.102,230.23,196.024,36.117,0.162933,75.0206,78.6673
5.92,195.242,230.94,196.747,36.1538,1.84036,83.8715,79.0229
5.94,195.377,231.65,197.47,36.1642,0.52024,-66.0061,79.3708
5.96,195.509,232.361,198.193,36.1509,-0.664048,-59.2144,79.7127
5.98,195.636,233.074,198.918,36.2192,3.41279,203.842,80.0485
6,195.759,233.788,199.642,36.1903,-1.44555,-242.917,80.3784
6.02,195.878,234.502,200.366,36.2349,2.23294,183.924,80.6998
6.04,195.994,235.218,201.092,36.266,1.55389,-33.9522,81.0153
6.06,196.104,235.935,201.816,36.2404,-1.27887,-141.638,81.3252
6.08,196.212,236.652,202.542,36.2809,2.02525,165.206,81.6294
6.1,196.316,237.37,203.267,36.2704,-0.523675,-127.446,81.9258
6.12,196.416,238.089,203.994,36.3062,1.78942,115.655,82.2162
6.14,196.513,238.81,204.72,36.342,1.78621,-0.160578,82.5011
6.16,196.606,239.53,205.446,36.2855,-2.82096,-230.359,82.7807
6.18,196.695,240.252,206.174,36.3776,4.60328,371.212,83.0528
6.2,196.782,240.974,206.901,36.3736,-0.198622,-240.095,83.319
6.22,196.864,241.696,207.628,36.3607,-0.646171,-22.3774,83.5809
6.24,196.944,242.419,208.356,36.3598,-0.0446448,30.0763,83.8362
6.26,197.021,243.143,209.084,36.4088,2.44748,124.606,84.0851
6.28,197.094,243.868,209.812,36.4053,-0.175415,-131.145,84.329
6.3,197.164,244.593,210.541,36.4506,2.26941,122.241,84.5665
