"time","x","y","position","velocity","acceleration","jerk","heading"
0,30,146.5,0,0,0,0,0
0.02,30.1095,146.5,0.109518,5.4759,273.795,13689.8,7.64208e-05
0.04,30.2191,146.5,0.219136,5.4809,0.25,-13677.3,0.000152842
0.06,30.3287,146.5,0.328654,5.4759,-0.250001,-25,0.000229262
0.08,30.4383,146.5,0.438272,5.4809,0.250001,25.0001,0.000305683
0.1,30.5478,146.5,0.54779,5.4759,-0.25,-25,0.000382104
0.12,30.6574,146.5,0.657408,5.4809,0.25,25,0.000458525
0.14,30.7669,146.5,0.766926,5.4759,-0.250001,-25,0.000534945
0.16,30.8765,146.5,0.876544,5.4809,0.250001,25.0001,0.000611366
0.18,30.9861,146.5,0.986062,5.4759,-0.25,-25,0.000687787
0.2,31.2307,146.5,1.23067,12.2305,337.732,16899.1,0.00115864
0.22,31.4953,146.5,1.4953,13.2312,50.0343,-14384.9,0.00168775
0.24,31.7599,146.5,1.75992,13.2312,5.89039e-06,-2501.72,0.00221687
0.26,32.0317,146.5,2.03166,13.5869,17.783,889.148,0.00280196
0.28,32.3766,146.5,2.37663,17.2486,183.083,8265.01,0.00395266
0.3,32.7216,146.5,2.7216,17.2486,-5.89143e-06,-9154.16,0.00510335
0.32,33.0786,146.5,3.07861,17.8503,30.0861,1504.31,0.00640027
0.34,33.4879,146.5,3.48786,20.4627,130.621,5026.72,0.00832621
0.36,33.8972,146.5,3.89722,20.4677,0.250029,-6518.52,0.0102522
0.38,34.3476,146.5,4.34763,22.5207,102.649,5119.95,0.0128557
0.4,34.8123,146.5,4.8123,23.2334,35.6384,-3350.53,0.0156942
0.42,35.3061,146.501,5.30611,24.6907,72.8624,1861.2,0.0191437
0.44,35.8203,146.501,5.82033,25.7107,51.0001,-1093.12,0.023022
0.46,36.3633,146.501,6.36331,27.1494,71.9371,1046.85,0.0276423
0.48,36.9227,146.501,6.9227,27.9694,40.9966,-1547.02,0.0326813
0.5,37.5174,146.502,7.51744,29.7372,88.3895,2369.64,0.0388024
0.52,38.1257,146.502,8.12569,30.4124,33.7598,-2731.49,0.0453681
0.54,38.766,146.503,8.76601,32.0158,80.1729,2320.65,0.0530728
0.56,39.4289,146.503,9.42894,33.1466,56.54,-1181.64,0.0616976
0.58,40.1108,146.504,10.1108,34.091,47.2183,-466.089,0.0711142
0.6,40.8231,146.505,10.8231,35.6174,76.3209,1455.13,0.0819246
0.62,41.5595,146.506,11.5595,36.822,60.23,-804.549,0.0939743
0.64,42.3174,146.507,12.3174,37.8908,53.4391,-339.541,0.107194
0.66,43.0979,146.509,13.0979,39.0264,56.7837,167.227,0.121736
0.68,43.9065,146.511,13.9066,40.4332,70.3395,677.792,0.138128
0.7,44.7404,146.513,14.7404,41.6935,63.0106,-366.445,0.156236
0.72,45.5975,146.515,15.5975,42.8534,57.9989,-250.588,0.17604
0.74,46.4783,146.518,16.4783,44.0403,59.3432,67.2162,0.197688
0.76,47.3833,146.522,17.3833,45.249,60.4363,54.6558,0.221334
0.78,48.3127,146.525,18.3128,46.4742,61.2588,41.1225,0.247134
0.8,49.2669,146.53,19.2669,47.7068,61.6321,18.6667,0.275245
0.82,50.2458,146.535,20.2458,48.946,61.9559,16.1905,0.305829
0.84,51.2495,146.54,21.2496,50.187,62.0531,4.86126,0.339051
0.86,52.278,146.546,22.2781,51.4253,61.9133,-6.9935,0.375075
0.88,53.3314,146.554,23.3315,52.671,62.2843,18.5532,0.414073
0.9,54.4095,146.562,24.4096,53.908,61.8503,-21.7033,0.456215
0.92,55.5124,146.572,25.5126,55.1479,61.9952,7.24959,0.501714
0.94,56.6399,146.582,26.6401,56.3759,61.3993,-29.7967,0.550829
0.96,57.792,146.594,27.7923,57.6109,61.7501,17.5411,0.603686
0.98,58.9686,146.606,28.969,58.8314,61.0252,-36.2445,0.660411
1,60.1695,146.621,30.17,60.0508,60.9697,-2.77785,0.721189
1.02,61.3982,146.637,31.3988,61.439,69.4107,422.052,0.786863
1.04,62.6511,146.655,32.6518,62.6528,60.6903,-436.021,0.857056
1.06,63.9283,146.675,33.9291,63.8654,60.6328,-2.87815,0.931965
1.08,65.2294,146.697,35.2304,65.0649,59.9706,-33.1086,1.01179
1.1,66.5588,146.721,36.5601,66.4832,70.9184,547.39,1.09771
1.12,67.9122,146.748,37.9137,67.6792,59.8007,-555.884,1.18909
1.14,69.2893,146.778,39.2912,68.8759,59.8332,1.62403,1.28622
1.16,70.6945,146.811,40.6968,70.2786,70.1347,515.076,1.39063
1.18,72.1168,146.847,42.1194,71.1342,42.7829,-1367.59,1.50075
1.2,73.5434,146.885,43.5466,71.3602,11.2973,-1574.28,1.61614
1.22,74.9713,146.927,44.9751,71.422,3.08955,-410.388,1.73684
1.24,76.4001,146.972,46.4046,71.4779,2.79345,-14.8053,1.86232
1.26,77.8303,147.02,47.8356,71.5469,3.4516,32.9076,1.99367
1.28,79.2615,147.071,49.2677,71.6068,2.99645,-22.7576,2.13009
1.3,80.6938,147.127,50.7011,71.6695,3.13511,6.93331,2.27205
1.32,82.1275,147.186,52.136,71.7466,3.85181,35.8348,2.41987
1.34,83.5622,147.248,53.572,71.8001,2.67757,-58.7117,2.57315
1.36,84.9983,147.314,55.0097,71.8846,4.2255,77.3962,2.73308
1.38,86.4356,147.385,56.4487,71.9506,3.30137,-46.2061,2.89865
1.4,87.8741,147.46,57.8892,72.0235,3.64221,17.042,3.07039
1.42,89.3139,147.54,59.3312,72.1009,3.87113,11.4459,3.24864
1.44,90.7548,147.624,60.7746,72.1696,3.43641,-21.7362,3.43279
1.46,92.1973,147.713,62.2198,72.2573,4.38327,47.3434,3.62421
1.48,93.6408,147.807,63.6663,72.3274,3.50318,-44.0046,3.82193
1.5,95.0857,147.905,65.1146,72.412,4.2298,36.3311,4.02655
1.52,96.5318,148.01,66.5644,72.4943,4.11493,-5.74383,4.23849
1.54,97.9791,148.12,68.016,72.576,4.08745,-1.37396,4.45707
1.56,99.4279,148.236,69.4694,72.6708,4.74005,32.6304,4.68383
1.58,100.878,148.358,70.9245,72.7567,4.29628,-22.1888,4.91784
1.6,102.329,148.486,72.3813,72.8414,4.23106,-3.26071,5.15981
1.62,103.782,148.62,73.8403,72.9462,5.24326,50.61,5.41008
1.64,105.236,148.761,75.3015,73.0632,5.84957,30.3152,5.66788
1.66,106.692,148.908,76.7646,73.1527,4.47443,-68.757,5.93499
1.68,108.148,149.063,78.2293,73.2344,4.08503,-19.4697,6.21019
1.7,109.606,149.226,79.6958,73.3276,4.65722,28.6093,6.4943
1.72,111.066,149.396,81.1654,73.479,7.5713,145.704,6.7879
1.74,112.525,149.573,82.6359,73.5225,2.17579,-269.775,7.09011
1.76,113.987,149.76,84.1098,73.6976,8.75701,329.061,7.40299
1.78,115.451,149.954,85.5859,73.8028,5.26084,-174.809,7.72518
1.8,116.915,150.156,87.0644,73.9278,6.24573,49.2447,8.05762
1.82,118.38,150.369,88.5448,74.0206,4.64023,-80.2752,8.40098
1.84,119.848,150.589,90.0286,74.1887,8.40542,188.26,8.75427
1.86,121.316,150.821,91.5148,74.3112,6.12392,-114.075,9.11989
1.88,122.784,151.061,93.0029,74.4026,4.5735,-77.521,9.49627
1.9,124.255,151.312,94.4947,74.5911,9.42379,242.515,9.88583
1.92,125.727,151.574,95.9898,74.7547,8.18138,-62.1206,10.2869
1.94,127.198,151.847,97.4865,74.8346,3.99435,-209.352,10.6997
1.96,128.672,152.131,98.9873,75.0386,10.1978,310.174,11.1261
1.98,130.147,152.426,100.491,75.1877,7.45406,-137.188,11.5653
2,131.621,152.734,101.997,75.3158,6.409,-52.2527,12.0185
2.02,133.097,153.054,103.507,75.501,9.26011,142.555,12.486
2.04,134.573,153.387,105.021,75.6825,9.07074,-9.46878,12.9671
2.06,136.05,153.734,106.538,75.864,9.07915,0.420579,13.4646
2.08,137.528,154.095,108.059,76.0263,8.11528,-48.1935,13.9764
2.1,139.005,154.469,109.583,76.2247,9.91999,90.2354,14.5051
2.12,140.483,154.859,111.112,76.4307,10.2996,18.9819,15.0498
2.14,141.96,155.264,112.643,76.5748,7.20458,-154.752,15.6088
2.16,143.438,155.685,114.18,76.8299,12.7553,277.535,16.1898
2.18,144.916,156.122,115.721,77.0557,11.2871,-73.4108,16.7868
2.2,146.392,156.576,117.265,77.2021,7.32039,-198.334,17.3994
2.22,147.869,157.047,118.815,77.5099,15.3916,403.559,18.0353
2.24,149.343,157.537,120.369,77.6595,7.48206,-395.475,18.6884
2.26,150.817,158.045,121.928,77.9611,15.079,379.849,19.3614
2.28,152.288,158.573,123.491,78.1684,10.3641,-235.749,20.0549
2.3,153.758,159.119,125.059,78.3918,11.1701,40.3017,20.768
2.32,155.225,159.686,126.632,78.6563,13.223,102.645,21.5033
2.34,156.69,160.274,128.211,78.922,13.2847,3.08539,22.2608
2.36,158.151,160.884,129.794,79.1558,11.6914,-79.6642,23.0383
2.38,159.609,161.516,131.383,79.471,15.7624,203.55,23.84
2.4,161.063,162.171,132.977,79.6907,10.9845,-238.894,24.6644
2.42,162.511,162.848,134.576,79.9666,13.7944,140.495,25.5112
2.44,163.955,163.551,136.182,80.2669,15.0128,60.9177,26.3814
2.46,165.392,164.277,137.792,80.5191,12.6131,-119.982,27.2733
2.48,166.823,165.029,139.408,80.8153,14.8078,109.734,28.191
2.5,168.245,165.807,141.029,81.0541,11.9383,-143.474,29.132
2.52,169.66,166.611,142.657,81.3923,16.9109,248.628,30.0954
2.54,171.066,167.441,144.289,81.6116,10.9667,-297.21,31.0826
2.56,172.46,168.299,145.926,81.8515,11.9941,51.372,32.0914
2.58,173.845,169.184,147.57,82.1883,16.8394,242.263,33.1246
2.6,175.217,170.098,149.218,82.4027,10.7224,-305.849,34.1783
2.62,176.576,171.039,150.872,82.6681,13.2667,127.213,35.2536
2.64,177.922,172.009,152.531,82.9436,13.7772,25.5252,36.3504
2.66,179.251,173.008,154.193,83.1327,9.45319,-216.2,37.466
2.68,180.565,174.035,155.86,83.3615,11.4387,99.2743,38.6007
2.7,181.859,175.09,157.531,83.5149,7.67279,-188.294,39.7499
2.72,183.136,176.175,159.207,83.7967,14.0919,320.955,40.9193
2.74,184.394,177.286,160.885,83.9047,5.39882,-434.653,42.1
2.76,185.63,178.427,162.567,84.1019,9.86128,223.123,43.295
2.78,186.843,179.594,164.25,84.1823,4.01867,-292.13,44.5004
2.8,188.033,180.789,165.937,84.3091,6.33795,115.964,45.7147
2.82,189.198,182.01,167.624,84.3828,3.68797,-132.499,46.9366
2.84,190.338,183.256,169.313,84.4476,3.23739,-22.5292,48.1628
2.86,191.452,184.527,171.003,84.5047,2.85422,-19.1583,49.3929
2.88,192.538,185.821,172.693,84.4816,-1.15194,-200.308,50.6234
2.9,193.596,187.139,174.382,84.4757,-0.297745,42.7098,51.8524
2.92,194.625,188.478,176.071,84.4345,-2.06066,-88.146,53.0781
2.94,195.624,189.838,177.758,84.3658,-3.43239,-68.5862,54.2981
2.96,196.593,191.217,179.445,84.3034,-3.12128,15.5556,55.5102
2.98,197.532,192.615,181.128,84.1747,-6.43305,-165.589,56.7131
3,198.44,194.029,182.808,84.004,-8.53672,-105.183,57.903
3.02,199.315,195.459,184.485,83.8694,-6.72789,90.4414,59.0803
3.04,200.161,196.903,186.159,83.6663,-10.1547,-171.339,60.2417
3.06,200.975,198.361,187.829,83.4896,-8.83495,65.9858,61.3871
3.08,201.758,199.831,189.494,83.2722,-10.8707,-101.787,62.5127
3.1,202.51,201.312,191.155,83.0352,-11.8505,-48.9885,63.62
3.12,203.232,202.802,192.81,82.7862,-12.4497,-29.9602,64.7058
3.14,203.923,204.3,194.46,82.4963,-14.4949,-102.263,65.7683
3.16,204.584,205.807,196.106,82.2703,-11.3031,159.59,66.8091
3.18,205.217,207.32,197.746,81.9871,-14.1588,-142.785,67.8253
3.2,205.82,208.838,199.38,81.7094,-13.887,13.5892,68.8194
3.22,206.396,210.362,201.008,81.418,-14.5656,-33.9273,69.7869
3.24,206.942,211.887,202.629,81.0371,-19.0493,-224.185,70.7279
3.26,207.464,213.418,204.246,80.8526,-9.22147,491.391,71.6452
3.28,207.959,214.949,205.855,80.4752,-18.8711,-482.48,72.5357
3.3,208.428,216.484,207.46,80.2181,-12.8553,300.787,73.4015
3.32,208.874,218.017,209.057,79.8586,-17.9765,-256.056,74.2407
3.34,209.294,219.552,210.648,79.5683,-14.5129,173.18,75.0538
3.36,209.693,221.087,212.234,79.3021,-13.311,60.0928,75.8435
3.38,210.069,222.622,213.814,78.9999,-15.1095,-89.9231,76.6067
3.4,210.423,224.155,215.387,78.654,-17.2965,-109.353,77.3417
3.42,210.758,225.687,216.956,78.4145,-11.9732,266.167,78.0547
3.44,211.071,227.217,218.518,78.1039,-15.5328,-177.981,78.7447
3.46,211.366,228.745,220.074,77.8082,-14.7803,37.6249,79.4062
3.48,211.643,230.272,221.625,77.5727,-11.7754,150.248,80.0469
3.5,211.901,231.795,223.17,77.2514,-16.0672,-214.593,80.6637
3.52,212.143,233.316,224.711,77.0055,-12.2933,188.696,81.2567
3.54,212.369,234.833,226.245,76.7116,-14.6946,-120.063,81.8296
3.56,212.578,236.346,227.772,76.3425,-18.457,-188.123,82.376
3.58,212.771,237.841,229.279,75.3659,-48.8295,-1518.62,82.8973
3.6,212.947,239.307,230.756,73.8525,-75.6698,-1342.01,83.3912
3.62,213.107,240.744,232.202,72.2845,-78.4005,-136.533,83.8558
3.64,213.254,242.153,233.618,70.8096,-73.744,232.826,84.2935
3.66,213.386,243.533,235.004,69.3097,-74.9984,-62.7234,84.7065
3.68,213.507,244.882,236.359,67.7519,-77.8861,-144.381,85.093
3.7,213.617,246.204,237.685,66.3107,-72.0604,291.282,85.4577
3.72,213.715,247.498,238.983,64.871,-71.9887,3.58592,85.8012
3.74,213.804,248.765,240.253,63.5067,-68.212,188.834,86.1245
3.76,213.885,250.001,241.492,61.9328,-78.6933,-524.064,86.4266
3.78,213.957,251.209,242.702,60.5375,-69.767,446.314,86.7098
3.8,214.022,252.391,243.886,59.1672,-68.5155,62.576,86.9756
3.82,214.08,253.544,245.041,57.7513,-70.7946,-113.955,87.2245
3.84,214.133,254.67,246.168,56.3533,-69.9006,44.6993,87.4575
3.86,214.18,255.769,247.268,55.013,-67.0145,144.307,87.6752
3.88,214.221,256.84,248.34,53.581,-71.5976,-229.155,87.8784
3.9,214.258,257.885,249.385,52.2625,-65.9261,283.573,88.0677
3.92,214.291,258.902,250.403,50.8992,-68.1644,-111.915,88.2438
3.94,214.32,259.893,251.394,49.5503,-67.4466,35.8923,88.4076
3.96,214.345,260.857,252.358,48.2015,-67.4399,0.335683,88.5592
3.98,214.368,261.794,253.295,46.8674,-66.7039,36.7972,88.6996
4,214.387,262.705,254.207,45.5906,-63.842,143.095,88.8295
4.02,214.405,263.592,255.094,44.3245,-63.3049,26.8542,88.9497
4.04,214.419,264.452,255.954,43.0112,-65.6643,-117.969,89.0605
4.06,214.432,265.281,256.783,41.4861,-76.2554,-529.557,89.1608
4.08,214.443,266.085,257.587,40.1913,-64.7423,575.658,89.2531
4.1,214.453,266.866,258.368,39.0558,-56.7703,398.598,89.3382
4.12,214.461,267.625,259.127,37.9258,-56.5028,13.3783,89.4166
4.14,214.467,268.351,259.853,36.3212,-80.2284,-1186.28,89.4862
4.16,214.474,269.052,260.554,35.047,-63.7088,825.981,89.5495
4.18,214.479,269.734,261.236,34.0913,-47.7873,796.071,89.6081
4.2,214.483,270.384,261.886,32.5073,-79.1977,-1570.52,89.6596
4.22,214.486,271.009,262.511,31.2446,-63.135,803.134,89.7058
4.24,214.489,271.619,263.121,30.507,-36.8845,1312.52,89.7488
4.26,214.492,272.187,263.69,28.4186,-104.417,-3376.6,89.7843
4.28,214.493,272.745,264.248,27.8994,-25.9603,3922.81,89.8182
4.3,214.495,273.266,264.768,26.0265,-93.6446,-3384.22,89.8459
4.32,214.496,273.774,265.276,25.4099,-30.8319,3140.64,89.8722
4.34,214.497,274.243,265.745,23.4463,-98.1807,-3367.44,89.8931
4.36,214.498,274.709,266.211,23.2916,-7.7356,4522.25,89.9136
4.38,214.498,275.12,266.623,20.572,-135.978,-6412.13,89.9282
4.4,214.499,275.532,267.035,20.6209,2.44415,6921.11,89.9427
4.42,214.499,275.904,267.407,18.5808,-102.006,-5222.5,89.9538
4.44,214.499,276.251,267.754,17.356,-61.237,2038.44,89.9628
4.46,214.5,276.598,268.101,17.3561,0.0036103,3062.03,89.9718
4.48,214.5,276.887,268.389,14.4172,-146.947,-7347.55,89.9775
4.5,214.5,277.152,268.654,13.2518,-58.2658,4434.09,89.9819
4.52,214.5,277.418,268.92,13.3018,2.5,3038.29,89.9863
4.54,214.5,277.683,269.185,13.253,-2.4411,-247.055,89.9908
4.56,214.5,277.802,269.305,5.96178,-364.562,-18106,89.9918
4.58,214.5,277.912,269.415,5.50942,-22.6178,17097.2,89.9926
4.6,214.5,278.021,269.524,5.45942,-2.5,1005.89,89.9934
4.62,214.5,278.132,269.634,5.5106,2.5589,252.945,89.9943
4.64,214.5,278.242,269.744,5.50942,-0.0589049,-130.89,89.9951
4.66,214.5,278.351,269.854,5.45942,-2.5,-122.055,89.9959
4.68,214.5,278.461,269.964,5.50942,2.5,250,89.9967
4.7,214.5,278.57,270.073,5.45942,-2.5,-250,89.9975
4.72,214.5,278.681,270.183,5.50942,2.5,250,89.9983
