"time","x","y","position","velocity","acceleration","jerk","heading"
0,30,162.75,0,0,0,0,0
0.02,30.0086,162.75,0.0086,0.43,21.5,1075,0
0.04,30.0296,162.75,0.0296,1.05,31,475,0
0.06,30.0667,162.75,0.0667,1.855,40.25,462.5,0
0.08,30.1184,162.75,0.1184,2.585,36.5,-187.5,0
0.1,30.185,162.75,0.185,3.33,37.25,37.5,0
0.12,30.2664,162.75,0.2664,4.07,37,-12.5,0
0.14,30.3626,162.75,0.3626,4.81,37,-9.11626e-10,0
0.16,30.4736,162.75,0.4736,5.55,37,4.79972e-10,0
0.18,30.5994,162.75,0.5994,6.29,37,-4.59721e-10,0
0.2,30.74,162.75,0.74,7.03,37,4.14957e-10,0
0.22,30.8954,162.75,0.8954,7.77,37,5.11591e-11,0
0.24,31.0656,162.75,1.0656,8.51,37,-2.41585e-11,0
0.26,31.2506,162.75,1.2506,9.25,37,-4.7784e-10,0
0.28,31.4504,162.75,1.4504,9.99,37,4.74998e-10,0
0.3,31.665,162.75,1.665,10.73,37,7.63833e-11,0
0.32,31.8944,162.75,1.8944,11.47,37,-1.51701e-10,0
0.34,32.1386,162.75,2.1386,12.21,37,-8.12861e-10,0
0.36,32.3976,162.75,2.3976,12.95,37,1.42641e-09,0
0.38,32.6714,162.75,2.6714,13.69,37,-6.31317e-10,0
0.4,32.96,162.75,2.96,14.43,37,9.30811e-11,0
0.42,33.2634,162.75,3.2634,15.17,37,-7.80886e-10,0
0.44,33.5816,162.75,3.5816,15.91,37,1.56248e-09,0
0.46,33.9146,162.75,3.9146,16.65,37,-1.66978e-09,0
0.48,34.2624,162.75,4.2624,17.39,37,1.00897e-09,0
0.5,34.625,162.75,4.625,18.13,37,-2.45137e-10,0
0.52,35.0024,162.75,5.0024,18.87,37,1.24345e-10,0
0.54,35.3946,162.75,5.3946,19.61,37,-8.88178e-10,0
0.56,35.8016,162.75,5.8016,20.35,37,1.77636e-09,0
0.58,36.2234,162.75,6.2234,21.09,37,-1.47296e-09,0
0.6,36.66,162.75,6.66,21.83,37,2.91678e-10,0
0.62,37.1114,162.75,7.1114,22.57,37,1.1724e-09,0
0.64,37.5776,162.75,7.5776,23.31,37,-2.65565e-09,0
0.66,38.0586,162.75,8.0586,24.05,37,2.66454e-09,0
0.68,38.5544,162.75,8.5544,24.79,37,-8.88178e-10,0
0.7,39.065,162.75,9.065,25.53,37,-5.22604e-10,0
0.72,39.5904,162.75,9.5904,26.27,37,1.04663e-09,0
0.74,40.1306,162.75,10.1306,27.01,37,-1.4122e-09,0
0.76,40.6856,162.75,10.6856,27.75,37,8.88178e-10,0
0.78,41.2554,162.75,11.2554,28.49,37,0,0
0.8,41.84,162.75,11.84,29.23,37,0,0
0.82,42.4394,162.75,12.4394,29.97,37,-4.69313e-10,0
0.84,43.0536,162.75,13.0536,30.71,37,9.40048e-10,0
0.86,43.6826,162.75,13.6826,31.45,37,-1.35891e-09,0
0.88,44.3264,162.75,14.3264,32.19,37,8.88178e-10,0
0.9,44.985,162.75,14.985,32.93,37,0,0
0.92,45.6584,162.75,15.6584,33.67,37,0,0
0.94,46.3466,162.75,16.3466,34.41,37,4.89919e-10,0
0.96,47.0496,162.75,17.0496,35.15,37,-1.85771e-09,0
0.98,47.7674,162.75,17.7674,35.89,37,2.25597e-09,0
1,48.5,162.75,18.5,36.63,37,-1.79412e-09,0
1.02,49.24,162.75,19.24,37,18.5,-925,0
1.04,49.98,162.75,19.98,37,-1.77636e-11,-925,0
1.06,50.72,162.75,20.72,37,1.77636e-11,1.77636e-09,0
1.08,51.46,162.75,21.46,37,0,-8.88178e-10,0
1.1,52.2,162.75,22.2,37,0,0,0
1.12,52.94,162.75,22.94,37,-1.77636e-11,-8.88178e-10,0
1.14,53.68,162.75,23.68,37,3.83693e-11,2.80664e-09,0
1.16,54.42,162.75,24.42,37,-2.06057e-11,-2.94875e-09,0
1.18,55.16,162.75,25.16,37,-1.77636e-11,1.42109e-10,0
1.2,55.9,162.75,25.9,37,1.77636e-11,1.77636e-09,0
1.22,56.64,162.75,26.64,37,0,-8.88178e-10,0
1.24,57.38,162.75,27.38,37,0,0,0
1.26,58.12,162.75,28.12,37,-1.77636e-11,-8.88178e-10,0
1.28,58.86,162.75,28.86,37,1.77636e-11,1.77636e-09,0
1.3,59.6,162.75,29.6,37,0,-8.88178e-10,0
1.32,60.34,162.75,30.34,37,0,0,0
1.34,61.08,162.75,31.08,37,-1.77636e-11,-8.88178e-10,0
1.36,61.82,162.75,31.82,37,1.77636e-11,1.77636e-09,0
1.38,62.56,162.75,32.56,37,2.06057e-11,1.42109e-10,0
1.4,63.3,162.75,33.3,37,-3.83693e-11,-2.94875e-09,0
1.42,64.04,162.75,34.04,37,3.55271e-11,3.69482e-09,0
1.44,64.78,162.75,34.78,37,-3.55271e-11,-3.55271e-09,0
1.46,65.52,162.75,35.52,37,0,1.77636e-09,0
1.48,66.26,162.75,36.26,37,3.55271e-11,1.77636e-09,0
1.5,67,162.75,37,37,-3.55271e-11,-3.55271e-09,0
1.52,67.74,162.75,37.74,37,0,1.77636e-09,0
1.54,68.48,162.75,38.48,37,3.55271e-11,1.77636e-09,0
1.56,69.22,162.75,39.22,37,-3.55271e-11,-3.55271e-09,0
1.58,69.96,162.75,39.96,37,0,1.77636e-09,0
1.6,70.7,162.75,40.7,37,3.55271e-11,1.77636e-09,0
1.62,71.44,162.75,41.44,37,-3.55271e-11,-3.55271e-09,0
1.64,72.18,162.75,42.18,37,5.61329e-11,4.583e-09,0
1.66,72.92,162.75,42.92,37,-5.61329e-11,-5.61329e-09,0
1.68,73.66,162.75,43.66,37,0,2.80664e-09,0
1.7,74.4,162.75,44.4,37,3.55271e-11,1.77636e-09,0
1.72,75.14,162.75,45.14,37,-3.55271e-11,-3.55271e-09,0
1.74,75.88,162.75,45.88,37,0,1.77636e-09,0
1.76,76.62,162.75,46.62,37,3.55271e-11,1.77636e-09,0
1.78,77.36,162.75,47.36,37,-3.55271e-11,-3.55271e-09,0
1.8,78.1,162.75,48.1,37,0,1.77636e-09,0
1.82,78.84,162.75,48.84,37,3.55271e-11,1.77636e-09,0
1.84,79.58,162.75,49.58,37,-3.55271e-11,-3.55271e-09,0
1.86,80.32,162.75,50.32,37,0,1.77636e-09,0
1.88,81.06,162.75,51.06,37,5.61329e-11,2.80664e-09,0
1.9,81.8,162.75,51.8,37,-5.61329e-11,-5.61329e-09,0
1.92,82.54,162.75,52.54,37,3.55271e-11,4.583e-09,0
1.94,83.28,162.75,53.28,37,-3.55271e-11,-3.55271e-09,0
1.96,84.02,162.75,54.02,37,0,1.77636e-09,0
1.98,84.76,162.75,54.76,37,3.55271e-11,1.77636e-09,0
2,85.5,162.75,55.5,37,-3.55271e-11,-3.55271e-09,0
2.02,86.24,162.75,56.24,37,0,1.77636e-09,0
2.04,86.98,162.75,56.98,37,3.55271e-11,1.77636e-09,0
2.06,87.72,162.75,57.72,37,-3.55271e-11,-3.55271e-09,0
2.08,88.46,162.75,58.46,37,0,1.77636e-09,0
2.1,89.2,162.75,59.2,37,3.55271e-11,1.77636e-09,0
2.12,89.94,162.75,59.94,37,-3.55271e-11,-3.55271e-09,0
2.14,90.68,162.75,60.68,37,3.55271e-11,3.55271e-09,0
2.16,91.42,162.75,61.42,37,-3.55271e-11,-3.55271e-09,0
2.18,92.16,162.75,62.16,37,0,1.77636e-09,0
2.2,92.9,162.75,62.9,37,3.55271e-11,1.77636e-09,0
2.22,93.64,162.75,63.64,37,-3.55271e-11,-3.55271e-09,0
2.24,94.38,162.75,64.38,37,0,1.77636e-09,0
2.26,95.12,162.75,65.12,37,7.67386e-11,3.83693e-09,0
2.28,95.86,162.75,65.86,37,-7.67386e-11,-7.67386e-09,0
2.3,96.6,162.75,66.6,37,0,3.83693e-09,0
2.32,97.34,162.75,67.34,37,3.55271e-11,1.77636e-09,0
2.34,98.08,162.75,68.08,37,-3.55271e-11,-3.55271e-09,0
2.36,98.82,162.75,68.82,37,0,1.77636e-09,0
2.38,99.56,162.75,69.56,37,3.55271e-11,1.77636e-09,0
2.4,100.3,162.75,70.3,37,-3.55271e-11,-3.55271e-09,0
2.42,101.04,162.75,71.04,37,3.55271e-11,3.55271e-09,0
2.44,101.78,162.75,71.78,37,-3.55271e-11,-3.55271e-09,0
2.46,102.52,162.75,72.52,37,0,1.77636e-09,0
2.48,103.26,162.75,73.26,37,3.55271e-11,1.77636e-09,0
2.5,104,162.75,74,37,-3.55271e-11,-3.55271e-09,0
2.52,104.74,162.75,74.74,37,0,1.77636e-09,0
2.54,105.48,162.75,75.48,37,3.55271e-11,1.77636e-09,0
2.56,106.22,162.75,76.22,37,-3.55271e-11,-3.55271e-09,0
2.58,106.96,162.75,76.96,37,0,1.77636e-09,0
2.6,107.7,162.75,77.7,37,3.55271e-11,1.77636e-09,0
2.62,108.44,162.75,78.44,37,-3.55271e-11,-3.55271e-09,0
2.64,109.18,162.75,79.18,37,3.55271e-11,3.55271e-09,0
2.66,109.92,162.75,79.92,37,-3.55271e-11,-3.55271e-09,0
2.68,110.66,162.75,80.66,37,0,1.77636e-09,0
2.7,111.4,162.75,81.4,37,3.55271e-11,1.77636e-09,0
2.72,112.14,162.75,82.14,37,-3.55271e-11,-3.55271e-09,0
2.74,112.88,162.75,82.88,37,0,1.77636e-09,0
2.76,113.62,162.75,83.62,37,7.67386e-11,3.83693e-09,0
2.78,114.36,162.75,84.36,37,-7.67386e-11,-7.67386e-09,0
2.8,115.1,162.75,85.1,37,0,3.83693e-09,0
2.82,115.84,162.75,85.84,37,3.55271e-11,1.77636e-09,0
2.84,116.58,162.75,86.58,37,-3.55271e-11,-3.55271e-09,0
2.86,117.32,162.75,87.32,37,0,1.77636e-09,0
2.88,118.06,162.75,88.06,37,3.55271e-11,1.77636e-09,0
2.9,118.8,162.75,88.8,37,-3.55271e-11,-3.55271e-09,0
2.92,119.54,162.75,89.54,37,3.55271e-11,3.55271e-09,0
2.94,120.28,162.75,90.28,37,-3.55271e-11,-3.55271e-09,0
2.96,121.02,162.75,91.02,37,0,1.77636e-09,0
2.98,121.76,162.75,91.76,37,3.55271e-11,1.77636e-09,0
3,122.5,162.75,92.5,37,-3.55271e-11,-3.55271e-09,0
3.02,123.24,162.75,93.24,37,0,1.77636e-09,0
3.04,123.98,162.75,93.98,37,3.55271e-11,1.77636e-09,0
3.06,124.72,162.75,94.72,37,-3.55271e-11,-3.55271e-09,0
3.08,125.46,162.75,95.46,37,0,1.77636e-09,0
3.1,126.2,162.75,96.2,37,3.55271e-11,1.77636e-09,0
3.12,126.94,162.75,96.94,37,-3.55271e-11,-3.55271e-09,0
3.14,127.68,162.75,97.68,37,3.55271e-11,3.55271e-09,0
3.16,128.42,162.75,98.42,37,-7.10543e-11,-5.32907e-09,0
3.18,129.16,162.75,99.16,37,7.10543e-11,7.10543e-09,0
3.2,129.9,162.75,99.9,37,0,-3.55271e-09,0
3.22,130.64,162.75,100.64,37,-7.10543e-11,-3.55271e-09,0
3.24,131.38,162.75,101.38,37,7.10543e-11,7.10543e-09,0
3.26,132.115,162.75,102.115,36.75,-12.5,-625,0
3.28,132.835,162.75,102.835,36,-37.5,-1250,0
3.3,133.54,162.75,103.54,35.25,-37.5,2.02505e-09,0
3.32,134.23,162.75,104.23,34.5,-37.5,3.55271e-09,0
3.34,134.906,162.75,104.906,33.8,-35,125,0
3.36,135.567,162.75,105.567,33.05,-37.5,-125,0
3.38,136.213,162.75,106.213,32.3,-37.5,0,0
3.4,136.844,162.75,106.844,31.55,-37.5,3.55271e-09,0
3.42,137.46,162.75,107.46,30.8,-37.5,0,0
3.44,138.062,162.75,108.062,30.1,-35,125,0
3.46,138.649,162.75,108.649,29.35,-37.5,-125,0
3.48,139.221,162.75,109.221,28.6,-37.5,3.54383e-09,0
3.5,139.778,162.75,109.778,27.85,-37.5,-3.55271e-09,0
3.52,140.32,162.75,110.32,27.1,-37.5,3.55271e-09,0
3.54,140.848,162.75,110.848,26.4,-35,125,0
3.56,141.361,162.75,111.361,25.65,-37.5,-125,0
3.58,141.859,162.75,111.859,24.9,-37.5,1.06493e-08,0
3.6,142.342,162.75,112.342,24.15,-37.5,-7.10543e-09,0
3.62,142.81,162.75,112.81,23.4,-37.5,0,0
3.64,143.264,162.75,113.264,22.7,-35,125,0
3.66,143.703,162.75,113.703,21.95,-37.5,-125,0
3.68,144.127,162.75,114.127,21.2,-37.5,3.54383e-09,0
3.7,144.536,162.75,114.536,20.45,-37.5,-3.55271e-09,0
3.72,144.93,162.75,114.93,19.7,-37.5,3.55271e-09,0
3.74,145.31,162.75,115.31,19,-35,125,0
3.76,145.675,162.75,115.675,18.25,-37.5,-125,0
3.78,146.025,162.75,116.025,17.5,-37.5,-5.54508e-09,0
3.8,146.36,162.75,116.36,16.75,-37.5,4.56524e-09,0
3.82,146.68,162.75,116.68,16,-37.5,-3.55271e-09,0
3.84,146.986,162.75,116.986,15.3,-35,125,0
3.86,147.277,162.75,117.277,14.55,-37.5,-125,0
3.88,147.553,162.75,117.553,13.8,-37.5,-4.26326e-12,0
3.9,147.814,162.75,117.814,13.05,-37.5,-3.55271e-09,0
3.92,148.06,162.75,118.06,12.3,-37.5,3.55698e-09,0
3.94,148.292,162.75,118.292,11.6,-35,125,0
3.96,148.509,162.75,118.509,10.85,-37.5,-125,0
3.98,148.711,162.75,118.711,10.1,-37.5,7.10116e-09,0
4,148.898,162.75,118.898,9.35,-37.5,-1.06581e-08,0
4.02,149.07,162.75,119.07,8.6,-37.5,7.54348e-09,0
4.04,149.228,162.75,119.228,7.9,-35,125,0
4.06,149.371,162.75,119.371,7.15,-37.5,-125,0
4.08,149.499,162.75,119.499,6.4,-37.5,-1.50457e-09,0
4.1,149.612,162.75,119.612,5.65,-37.5,4.89067e-09,0
4.12,149.71,162.75,119.71,4.9,-37.5,-1.17133e-09,0
4.14,149.794,162.75,119.794,4.2,-35,125,0
4.16,149.863,162.75,119.863,3.45,-37.5,-125,0
4.18,149.917,162.75,119.917,2.7,-37.5,4.23555e-09,0
4.2,149.956,162.75,119.956,1.95,-37.5,-4.06963e-09,0
4.22,149.98,162.75,119.98,1.2,-37.5,3.90301e-09,0
4.24,149.989,162.75,119.989,0.45,-37.5,-1.82965e-10,0
