"time","x","y","position","velocity","acceleration","jerk","heading"
0,30,172.35,0,0,0,0,0
0.02,30.1265,172.35,0.126481,6.32405,316.202,15810.1,8.82431e-05
0.04,30.253,172.35,0.252962,6.32405,1.07763e-07,-15810.1,0.000176486
0.06,30.3794,172.35,0.379443,6.32405,-5.38769e-08,-8.08198e-06,0.000264729
0.08,30.5059,172.35,0.505924,6.32405,-8.88178e-14,2.69384e-06,0.000352972
0.1,30.6324,172.35,0.632405,6.32405,-5.38876e-07,-2.69438e-05,0.000441216
0.12,30.7588,172.35,0.758786,6.31905,-0.249999,-12.4999,0.000529459
0.14,30.8853,172.35,0.885267,6.32405,0.25,25,0.000617702
0.16,31.0286,172.35,1.02864,7.16852,42.2234,2098.67,0.000755241
0.18,31.3339,172.35,1.33391,15.2634,404.745,18126.1,0.00136621
0.2,31.6392,172.35,1.63917,15.2634,-5.3877e-07,-20237.2,0.00197718
0.22,31.9443,172.35,1.94434,15.2584,-0.25,-12.5,0.00258815
0.24,32.3254,172.35,2.32538,19.0521,189.683,9496.65,0.00378742
0.26,32.7231,172.35,2.7231,19.8857,41.6802,-7400.14,0.00511613
0.28,33.1435,172.35,3.14345,21.0177,56.6019,746.085,0.0067196
0.3,33.6151,172.35,3.61507,23.581,128.166,3578.19,0.00894349
0.32,34.0987,172.35,4.09865,24.1789,29.8929,-4913.64,0.0113661
0.34,34.6337,172.35,4.63374,26.7547,128.789,4944.82,0.0146437
0.36,35.1871,172.351,5.18705,27.6656,45.5437,-4162.28,0.0183083
0.38,35.7788,172.351,5.77879,29.5867,96.0593,2525.78,0.0227866
0.4,36.4032,172.351,6.40324,31.2226,81.7913,-713.397,0.0281161
0.42,37.0505,172.351,7.05046,32.361,56.9202,-1243.56,0.0340576
0.44,37.7414,172.352,7.74139,34.5464,109.274,2617.68,0.0413501
0.46,38.4606,172.352,8.4606,35.9604,70.6955,-1928.91,0.0496682
0.48,39.2078,172.353,9.20777,37.3589,69.926,-38.4742,0.0590545
0.5,39.985,172.354,9.98498,38.8605,75.0811,257.755,0.0696819
0.52,40.8018,172.355,10.8018,40.8405,99.0001,1195.95,0.0821647
0.54,41.6481,172.356,11.6481,42.3139,73.6688,-1266.56,0.0961898
0.56,42.5248,172.358,12.5248,43.8352,76.0649,119.803,0.111958
0.58,43.4326,172.36,13.4327,45.3938,77.9319,93.3482,0.129708
0.6,44.3718,172.362,14.3719,46.9605,78.3342,20.1185,0.149621
0.62,45.3428,172.365,15.3428,48.5458,79.2641,46.4948,0.171839
0.64,46.3452,172.368,16.3453,50.1238,78.9019,-18.1108,0.196558
0.66,47.3792,172.372,17.3792,51.6999,78.8031,-4.93992,0.223977
0.68,48.4445,172.376,18.4445,53.2636,78.1851,-30.9016,0.254299
0.7,49.541,172.382,19.541,54.8255,78.0962,-4.44303,0.287731
0.72,50.6684,172.388,20.6684,56.3697,77.212,-44.2131,0.324479
0.74,51.8263,172.395,21.8264,57.897,76.3623,-42.4848,0.364754
0.76,53.0167,172.403,23.0168,59.5238,81.3414,248.958,0.409061
0.78,54.2394,172.412,24.2396,61.1375,80.6854,-32.8038,0.457692
0.8,55.4921,172.423,25.4923,62.6365,74.9488,-286.826,0.510663
0.82,56.7741,172.434,26.7744,64.1017,73.2594,-84.4749,0.568292
0.84,58.0891,172.448,28.0894,65.7538,82.608,467.43,0.631372
0.86,59.4348,172.464,29.4352,67.2867,76.6436,-298.217,0.699847
0.88,60.8089,172.481,30.8095,68.7148,71.4052,-261.922,0.773647
0.9,62.2171,172.502,32.2177,70.4139,84.9555,677.516,0.85426
0.92,63.6533,172.523,33.6541,71.8198,70.2943,-733.06,0.940876
0.94,65.1215,172.549,35.1225,73.4193,79.9746,484.014,1.03478
0.96,66.6187,172.578,36.62,74.876,72.8328,-357.087,1.13572
0.98,68.1476,172.609,38.1492,76.4596,79.1814,317.427,1.24492
1,69.7043,172.645,39.7064,77.8582,69.9316,-462.489,1.36204
1.02,71.2768,172.684,41.2794,78.648,39.4875,-1522.2,1.48749
1.04,72.8479,172.726,42.851,78.5809,-3.35327,-2142.04,1.61906
1.06,74.4174,172.772,44.4212,78.5086,-3.6168,-13.1767,1.7574
1.08,75.9853,172.822,45.9898,78.4349,-3.68339,-3.32954,1.90268
1.1,77.5517,172.877,47.5572,78.3678,-3.3561,16.3644,2.0545
1.12,79.1162,172.935,49.1228,78.279,-4.43873,-54.1313,2.21413
1.14,80.679,172.997,50.6869,78.2048,-3.71042,36.4154,2.38061
1.16,82.24,173.065,52.2493,78.1218,-4.15088,-22.0231,2.55483
1.18,83.7991,173.137,53.81,78.0365,-4.26264,-5.5879,2.73707
1.2,85.3562,173.214,55.3691,77.9541,-4.12295,6.98466,2.92668
1.22,86.9113,173.296,56.9264,77.8619,-4.61006,-24.3556,3.1251
1.24,88.4645,173.383,58.482,77.7796,-4.11491,24.7577,3.33128
1.26,90.0153,173.476,60.0356,77.6844,-4.76071,-32.2904,3.54606
1.28,91.5639,173.575,61.5874,77.5876,-4.83893,-3.91092,3.76969
1.3,93.1104,173.681,63.1375,77.5055,-4.10481,36.706,4.00169
1.32,94.6542,173.792,64.6853,77.3882,-5.86198,-87.8583,4.24374
1.34,96.1957,173.91,66.2312,77.2986,-4.48093,69.0528,4.49466
1.36,97.7345,174.034,67.775,77.19,-5.43061,-47.4841,4.75543
1.38,99.2699,174.166,69.3161,77.0518,-6.9115,-74.0445,5.02663
1.4,100.804,174.304,70.856,76.9971,-2.73529,208.81,5.30754
1.42,102.334,174.45,72.3932,76.8594,-6.88519,-207.495,5.60004
1.44,103.861,174.604,73.928,76.738,-6.06703,40.908,5.9028
1.46,105.385,174.765,75.4602,76.6115,-6.32732,-13.0147,6.21698
1.48,106.905,174.936,76.9899,76.4833,-6.40935,-4.10135,6.54297
1.5,108.422,175.114,78.5171,76.364,-5.96329,22.303,6.88018
1.52,109.935,175.301,80.0416,76.2224,-7.07994,-55.8324,7.23092
1.54,111.443,175.498,81.5629,76.0633,-7.95735,-43.8705,7.59365
1.56,112.949,175.703,83.0824,75.9784,-4.24669,185.533,7.96978
1.58,114.448,175.918,84.5976,75.7566,-11.0892,-342.127,8.35977
1.6,115.946,176.144,86.1116,75.7017,-2.74446,417.238,8.76296
1.62,117.436,176.379,87.6208,75.4579,-12.1898,-472.269,9.18209
1.64,118.923,176.624,89.1277,75.349,-5.44635,337.174,9.61562
1.66,120.403,176.882,90.6302,75.1249,-11.2024,-287.805,10.0663
1.68,121.879,177.15,92.1297,74.975,-7.49617,185.314,10.5315
1.7,123.349,177.429,93.626,74.8159,-7.9546,-22.9217,11.0125
1.72,124.812,177.721,95.1181,74.6039,-10.6017,-132.356,11.5128
1.74,126.27,178.024,96.6072,74.4557,-7.40944,159.614,12.0298
1.76,127.72,178.34,98.0916,74.2181,-11.8798,-223.517,12.5652
1.78,129.164,178.669,99.5718,74.0116,-10.3226,77.8583,13.1203
1.8,130.599,179.011,101.048,73.7958,-10.7933,-23.5332,13.6942
1.82,132.028,179.367,102.52,73.6046,-9.55902,61.7126,14.2899
1.84,133.447,179.736,103.987,73.3518,-12.6383,-153.963,14.9049
1.86,134.859,180.12,105.45,73.1347,-10.8563,89.0977,15.5424
1.88,136.261,180.518,106.907,72.8607,-13.7014,-142.253,16.2041
1.9,137.653,180.932,108.36,72.6432,-10.8729,141.424,16.8883
1.92,139.036,181.361,109.807,72.3655,-13.8843,-150.568,17.5959
1.94,140.408,181.806,111.249,72.1069,-12.9295,47.7396,18.3276
1.96,141.769,182.266,112.686,71.8412,-13.2868,-17.8639,19.0867
1.98,143.117,182.744,114.116,71.5233,-15.8945,-130.387,19.8721
2,144.454,183.237,115.542,71.2777,-12.2802,180.713,20.6813
2.02,145.778,183.748,116.961,70.9589,-15.9414,-183.057,21.5214
2.04,147.089,184.276,118.374,70.641,-15.8957,2.28367,22.3896
2.06,148.385,184.822,119.78,70.3172,-16.1858,-14.5073,23.2856
2.08,149.667,185.386,121.181,70.0439,-13.6687,125.856,24.2108
2.1,150.934,185.968,122.575,69.7162,-16.3813,-135.626,25.1655
2.12,152.185,186.569,123.963,69.3589,-17.8651,-74.1924,26.1523
2.14,153.42,187.188,125.344,69.069,-14.4976,168.376,27.1651
2.16,154.636,187.827,126.719,68.7234,-17.28,-139.122,28.2135
2.18,155.836,188.484,128.086,68.371,-17.6198,-16.9904,29.2922
2.2,157.017,189.161,129.448,68.099,-13.5976,201.112,30.3967
2.22,158.178,189.858,130.802,67.7116,-19.3704,-288.643,31.5365
2.24,159.32,190.575,132.15,67.4093,-15.1179,212.627,32.7051
2.26,160.442,191.312,133.492,67.0906,-15.9341,-40.8083,33.9007
2.28,161.543,192.069,134.829,66.8356,-12.7508,159.164,35.1257
2.3,162.622,192.845,136.158,66.4658,-18.4887,-286.897,36.3774
2.32,163.68,193.643,137.483,66.2456,-11.0109,373.893,37.6546
2.34,164.715,194.461,138.802,65.9647,-14.0462,-151.767,38.9556
2.36,165.729,195.299,140.117,65.7526,-10.6043,172.093,40.2786
2.38,166.718,196.158,141.428,65.5232,-11.4689,-43.2261,41.6214
2.4,167.685,197.038,142.735,65.3677,-7.7736,184.764,42.9817
2.42,168.628,197.937,144.038,65.1386,-11.4577,-184.206,44.357
2.44,169.547,198.859,145.34,65.0912,-2.36686,454.543,45.7445
2.46,170.442,199.799,146.638,64.9082,-9.15384,-339.349,47.1415
2.48,171.313,200.761,147.936,64.884,-1.20608,397.388,48.5442
2.5,172.159,201.744,149.232,64.8298,-2.70947,-75.1697,49.9502
2.52,172.982,202.746,150.529,64.8567,1.3446,202.704,51.3559
2.54,173.78,203.77,151.827,64.898,2.06556,36.0479,52.7585
2.56,174.553,204.814,153.127,64.9642,3.30867,62.1553,54.1538
2.58,175.302,205.878,154.428,65.051,4.34134,51.6339,55.5396
2.6,176.028,206.962,155.732,65.2035,7.62317,164.091,56.914
2.62,176.728,208.066,157.04,65.3883,9.23709,80.6962,58.2693
2.64,177.405,209.189,158.35,65.549,8.03548,-60.0805,59.609
2.66,178.057,210.332,159.667,65.8073,12.9162,244.036,60.9273
2.68,178.685,211.494,160.988,66.0513,12.1995,-35.8341,62.2198
2.7,179.29,212.674,162.314,66.3106,12.9663,38.3403,63.491
2.72,179.873,213.873,163.646,66.6127,15.1074,107.053,64.7322
2.74,180.431,215.089,164.985,66.93,15.8636,37.8114,65.9435
2.76,180.966,216.323,166.33,67.2576,16.3766,25.652,67.127
2.78,181.479,217.574,167.681,67.5742,15.8319,-27.2363,68.2783
2.8,181.969,218.841,169.04,67.9202,17.3017,73.4883,69.3977
2.82,182.437,220.124,170.406,68.2915,18.5657,63.1985,70.4847
2.84,182.884,221.422,171.778,68.6319,17.0172,-77.4234,71.5389
2.86,183.309,222.736,173.16,69.0647,21.641,231.193,72.5573
2.88,183.713,224.063,174.547,69.3486,14.1956,-372.274,73.5428
2.9,184.097,225.403,175.94,69.6979,17.4643,163.44,74.4986
2.92,184.461,226.757,177.343,70.1077,20.4878,151.174,75.4154
2.94,184.805,228.124,178.753,70.5009,19.6601,-41.3851,76.2991
2.96,185.13,229.502,180.169,70.7957,14.7444,-245.785,77.1516
2.98,185.436,230.893,181.592,71.1787,19.1465,220.104,77.972
3,185.725,232.293,183.022,71.4885,15.4891,-182.872,78.7615
3.02,185.995,233.704,184.459,71.857,18.4261,146.853,79.5151
3.04,186.249,235.125,185.903,72.1746,15.8796,-127.328,80.2406
3.06,186.485,236.557,187.353,72.531,17.8226,97.1543,80.9356
3.08,186.706,237.996,188.81,72.82,14.4469,-168.789,81.5998
3.1,186.912,239.445,190.273,73.1858,18.2924,192.276,82.2362
3.12,187.102,240.898,191.738,73.2561,3.5151,-738.864,82.841
3.14,187.276,242.338,193.189,72.5076,-37.4246,-2046.99,83.4122
3.16,187.432,243.754,194.613,71.2209,-64.3345,-1345.5,83.9452
3.18,187.574,245.147,196.014,70.0328,-59.4072,246.364,84.4422
3.2,187.702,246.517,197.389,68.7766,-62.8071,-169.99,84.9054
3.22,187.816,247.864,198.741,67.5935,-59.1577,182.468,85.3382
3.24,187.919,249.184,200.066,66.2365,-67.851,-434.664,85.7398
3.26,188.011,250.482,201.366,65.0217,-60.7375,355.673,86.1158
3.28,188.094,251.75,202.637,63.5478,-73.6979,-648.02,86.4631
3.3,188.166,252.994,203.884,62.3295,-60.9154,639.128,86.7863
3.32,188.232,254.213,205.104,60.9987,-66.5373,-281.098,87.0873
3.34,188.29,255.403,206.295,59.5804,-70.9146,-218.866,87.3651
3.36,188.341,256.566,207.459,58.1943,-69.3056,80.4544,87.6215
3.38,188.386,257.701,208.596,56.839,-67.7637,77.0926,87.8588
3.4,188.425,258.809,209.704,55.425,-70.6992,-146.776,88.0779
3.42,188.459,259.89,210.785,54.0502,-68.742,97.8606,88.2799
3.44,188.488,260.943,211.839,52.6728,-68.8718,-6.49211,88.4654
3.46,188.515,261.966,212.863,51.1893,-74.1713,-264.97,88.635
3.48,188.537,262.961,213.858,49.7445,-72.2411,96.508,88.7898
3.5,188.556,263.926,214.823,48.2915,-72.6509,-20.4905,88.9307
3.52,188.573,264.862,215.759,46.778,-75.6754,-151.226,89.0587
3.54,188.586,265.768,216.665,45.3062,-73.5916,104.19,89.1746
3.56,188.598,266.643,217.541,43.7756,-76.5274,-146.787,89.2793
3.58,188.608,267.49,218.387,42.3355,-72.0059,226.073,89.3737
3.6,188.617,268.307,219.204,40.8374,-74.9036,-144.887,89.4586
3.62,188.623,269.094,219.992,39.3792,-72.9108,99.6423,89.5349
3.64,188.629,269.855,220.753,38.0608,-65.9228,349.401,89.6036
3.66,188.633,270.58,221.477,36.2104,-92.5193,-1329.83,89.663
3.68,188.637,271.272,222.17,34.6369,-78.6728,692.329,89.7153
3.7,188.64,271.941,222.839,33.4438,-59.6558,950.847,89.7623
3.72,188.643,272.576,223.474,31.7628,-84.0503,-1219.72,89.8029
3.74,188.644,273.175,224.073,29.9304,-91.6205,-378.509,89.8372
3.76,188.646,273.758,224.656,29.1596,-38.5387,2654.09,89.8688
3.78,188.647,274.289,225.187,26.5392,-131.019,-4623.99,89.893
3.8,188.648,274.808,225.706,25.9543,-29.2455,5088.65,89.9158
3.82,188.649,275.277,226.174,23.419,-126.767,-4876.05,89.9326
3.84,188.649,275.74,226.638,23.1743,-12.2332,5726.67,89.9489
3.86,188.649,276.136,227.033,19.7879,-169.321,-7854.37,89.9593
3.88,188.65,276.532,227.429,19.788,0.00314899,8466.19,89.9697
3.9,188.65,276.876,227.773,17.2202,-128.387,-6419.48,89.9771
3.92,188.65,277.181,228.078,15.244,-98.8145,1478.6,89.9823
3.94,188.65,277.485,228.382,15.195,-2.44611,4818.42,89.9874
3.96,188.65,277.739,228.636,12.708,-124.353,-6095.36,89.9913
3.98,188.65,277.866,228.763,6.33922,-318.437,-9704.2,89.9923
4,188.65,277.991,228.889,6.2903,-2.44611,15799.6,89.9932
4.02,188.65,278.118,229.016,6.3403,2.5,247.306,89.9941
4.04,188.65,278.244,229.142,6.28922,-2.55389,-252.694,89.9951
4.06,188.65,278.371,229.268,6.3403,2.55389,255.389,89.996
4.08,188.65,278.497,229.394,6.2903,-2.5,-252.694,89.9969
4.1,188.65,278.623,229.521,6.33922,2.44611,247.306,89.9979
