"time","x","y","position","velocity","acceleration","jerk","heading"
0,30,157.25,0,0,0,0,0
0.02,30.0086,157.25,0.0086,0.43,21.5,1075,0
0.04,30.0296,157.25,0.0296,1.05,31,475,0
0.06,30.0667,157.25,0.0667,1.855,40.25,462.5,0
0.08,30.1184,157.25,0.1184,2.585,36.5,-187.5,0
0.1,30.185,157.25,0.185,3.33,37.25,37.5,0
0.12,30.2664,157.25,0.2664,4.07,37,-12.5,0
0.14,30.3626,157.25,0.3626,4.81,37,-9.11626e-10,0
0.16,30.4736,157.25,0.4736,5.55,37,4.79972e-10,0
0.18,30.5994,157.25,0.5994,6.29,37,-4.59721e-10,0
0.2,30.74,157.25,0.74,7.03,37,4.14957e-10,0
0.22,30.8954,157.25,0.8954,7.77,37,5.11591e-11,0
0.24,31.0656,157.25,1.0656,8.51,37,-2.41585e-11,0
0.26,31.2506,157.25,1.2506,9.25,37,-4.7784e-10,0
0.28,31.4504,157.25,1.4504,9.99,37,4.74998e-10,0
0.3,31.665,157.25,1.665,10.73,37,7.63833e-11,0
0.32,31.8944,157.25,1.8944,11.47,37,-1.51701e-10,0
0.34,32.1386,157.25,2.1386,12.21,37,-8.12861e-10,0
0.36,32.3976,157.25,2.3976,12.95,37,1.42641e-09,0
0.38,32.6714,157.25,2.6714,13.69,37,-6.31317e-10,0
0.4,32.96,157.25,2.96,14.43,37,9.30811e-11,0
0.42,33.2634,157.25,3.2634,15.17,37,-7.80886e-10,0
0.44,33.5816,157.25,3.5816,15.91,37,1.56248e-09,0
0.46,33.9146,157.25,3.9146,16.65,37,-1.66978e-09,0
0.48,34.2624,157.25,4.2624,17.39,37,1.00897e-09,0
0.5,34.625,157.25,4.625,18.13,37,-2.45137e-10,0
0.52,35.0024,157.25,5.0024,18.87,37,1.24345e-10,0
0.54,35.3946,157.25,5.3946,19.61,37,-8.88178e-10,0
0.56,35.8016,157.25,5.8016,20.35,37,1.77636e-09,0
0.58,36.2234,157.25,6.2234,21.09,37,-1.47296e-09,0
0.6,36.66,157.25,6.66,21.83,37,2.91678e-10,0
0.62,37.1114,157.25,7.1114,22.57,37,1.1724e-09,0
0.64,37.5776,157.25,7.5776,23.31,37,-2.65565e-09,0
0.66,38.0586,157.25,8.0586,24.05,37,2.66454e-09,0
0.68,38.5544,157.25,8.5544,24.79,37,-8.88178e-10,0
0.7,39.065,157.25,9.065,25.53,37,-5.22604e-10,0
0.72,39.5904,157.25,9.5904,26.27,37,1.04663e-09,0
0.74,40.1306,157.25,10.1306,27.01,37,-1.4122e-09,0
0.76,40.6856,157.25,10.6856,27.75,37,8.88178e-10,0
0.78,41.2554,157.25,11.2554,28.49,37,0,0
0.8,41.84,157.25,11.84,29.23,37,0,0
0.82,42.4394,157.25,12.4394,29.97,37,-4.69313e-10,0
0.84,43.0536,157.25,13.0536,30.71,37,9.40048e-10,0
0.86,43.6826,157.25,13.6826,31.45,37,-1.35891e-09,0
0.88,44.3264,157.25,14.3264,32.19,37,8.88178e-10,0
0.9,44.985,157.25,14.985,32.93,37,0,0
0.92,45.6584,157.25,15.6584,33.67,37,0,0
0.94,46.3466,157.25,16.3466,34.41,37,4.89919e-10,0
0.96,47.0496,157.25,17.0496,35.15,37,-1.85771e-09,0
0.98,47.7674,157.25,17.7674,35.89,37,2.25597e-09,0
1,48.5,157.25,18.5,36.63,37,-1.79412e-09,0
1.02,49.24,157.25,19.24,37,18.5,-925,0
1.04,49.98,157.25,19.98,37,-1.77636e-11,-925,0
1.06,50.72,157.25,20.72,37,1.77636e-11,1.77636e-09,0
1.08,51.46,157.25,21.46,37,0,-8.88178e-10,0
1.1,52.2,157.25,22.2,37,0,0,0
1.12,52.94,157.25,22.94,37,-1.77636e-11,-8.88178e-10,0
1.14,53.68,157.25,23.68,37,3.83693e-11,2.80664e-09,0
1.16,54.42,157.25,24.42,37,-2.06057e-11,-2.94875e-09,0
1.18,55.16,157.25,25.16,37,-1.77636e-11,1.42109e-10,0
1.2,55.9,157.25,25.9,37,1.77636e-11,1.77636e-09,0
1.22,56.64,157.25,26.64,37,0,-8.88178e-10,0
1.24,57.38,157.25,27.38,37,0,0,0
1.26,58.12,157.25,28.12,37,-1.77636e-11,-8.88178e-10,0
1.28,58.86,157.25,28.86,37,1.77636e-11,1.77636e-09,0
1.3,59.6,157.25,29.6,37,0,-8.88178e-10,0
1.32,60.34,157.25,30.34,37,0,0,0
1.34,61.08,157.25,31.08,37,-1.77636e-11,-8.88178e-10,0
1.36,61.82,157.25,31.82,37,1.77636e-11,1.77636e-09,0
1.38,62.56,157.25,32.56,37,2.06057e-11,1.42109e-10,0
1.4,63.3,157.25,33.3,37,-3.83693e-11,-2.94875e-09,0
1.42,64.04,157.25,34.04,37,3.55271e-11,3.69482e-09,0
1.44,64.78,157.25,34.78,37,-3.55271e-11,-3.55271e-09,0
1.46,65.52,157.25,35.52,37,0,1.77636e-09,0
1.48,66.26,157.25,36.26,37,3.55271e-11,1.77636e-09,0
1.5,67,157.25,37,37,-3.55271e-11,-3.55271e-09,0
1.52,67.74,157.25,37.74,37,0,1.77636e-09,0
1.54,68.48,157.25,38.48,37,3.55271e-11,1.77636e-09,0
1.56,69.22,157.25,39.22,37,-3.55271e-11,-3.55271e-09,0
1.58,69.96,157.25,39.96,37,0,1.77636e-09,0
1.6,70.7,157.25,40.7,37,3.55271e-11,1.77636e-09,0
1.62,71.44,157.25,41.44,37,-3.55271e-11,-3.55271e-09,0
1.64,72.18,157.25,42.18,37,5.61329e-11,4.583e-09,0
1.66,72.92,157.25,42.92,37,-5.61329e-11,-5.61329e-09,0
1.68,73.66,157.25,43.66,37,0,2.80664e-09,0
1.7,74.4,157.25,44.4,37,3.55271e-11,1.77636e-09,0
1.72,75.14,157.25,45.14,37,-3.55271e-11,-3.55271e-09,0
1.74,75.88,157.25,45.88,37,0,1.77636e-09,0
1.76,76.62,157.25,46.62,37,3.55271e-11,1.77636e-09,0
1.78,77.36,157.25,47.36,37,-3.55271e-11,-3.55271e-09,0
1.8,78.1,157.25,48.1,37,0,1.77636e-09,0
1.82,78.84,157.25,48.84,37,3.55271e-11,1.77636e-09,0
1.84,79.58,157.25,49.58,37,-3.55271e-11,-3.55271e-09,0
1.86,80.32,157.25,50.32,37,0,1.77636e-09,0
1.88,81.06,157.25,51.06,37,5.61329e-11,2.80664e-09,0
1.9,81.8,157.25,51.8,37,-5.61329e-11,-5.61329e-09,0
1.92,82.54,157.25,52.54,37,3.55271e-11,4.583e-09,0
1.94,83.28,157.25,53.28,37,-3.55271e-11,-3.55271e-09,0
1.96,84.02,157.25,54.02,37,0,1.77636e-09,0
1.98,84.76,157.25,54.76,37,3.55271e-11,1.77636e-09,0
2,85.5,157.25,55.5,37,-3.55271e-11,-3.55271e-09,0
2.02,86.24,157.25,56.24,37,0,1.77636e-09,0
2.04,86.98,157.25,56.98,37,3.55271e-11,1.77636e-09,0
2.06,87.72,157.25,57.72,37,-3.55271e-11,-3.55271e-09,0
2.08,88.46,157.25,58.46,37,0,1.77636e-09,0
2.1,89.2,157.25,59.2,37,3.55271e-11,1.77636e-09,0
2.12,89.94,157.25,59.94,37,-3.55271e-11,-3.55271e-09,0
2.14,90.68,157.25,60.68,37,3.55271e-11,3.55271e-09,0
2.16,91.42,157.25,61.42,37,-3.55271e-11,-3.55271e-09,0
2.18,92.16,157.25,62.16,37,0,1.77636e-09,0
2.2,92.9,157.25,62.9,37,3.55271e-11,1.77636e-09,0
2.22,93.64,157.25,63.64,37,-3.55271e-11,-3.55271e-09,0
2.24,94.38,157.25,64.38,37,0,1.77636e-09,0
2.26,95.12,157.25,65.12,37,7.67386e-11,3.83693e-09,0
2.28,95.86,157.25,65.86,37,-7.67386e-11,-7.67386e-09,0
2.3,96.6,157.25,66.6,37,0,3.83693e-09,0
2.32,97.34,157.25,67.34,37,3.55271e-11,1.77636e-09,0
2.34,98.08,157.25,68.08,37,-3.55271e-11,-3.55271e-09,0
2.36,98.82,157.25,68.82,37,0,1.77636e-09,0
2.38,99.56,157.25,69.56,37,3.55271e-11,1.77636e-09,0
2.4,100.3,157.25,70.3,37,-3.55271e-11,-3.55271e-09,0
2.42,101.04,157.25,71.04,37,3.55271e-11,3.55271e-09,0
2.44,101.78,157.25,71.78,37,-3.55271e-11,-3.55271e-09,0
2.46,102.52,157.25,72.52,37,0,1.77636e-09,0
2.48,103.26,157.25,73.26,37,3.55271e-11,1.77636e-09,0
2.5,104,157.25,74,37,-3.55271e-11,-3.55271e-09,0
2.52,104.74,157.25,74.74,37,0,1.77636e-09,0
2.54,105.48,157.25,75.48,37,3.55271e-11,1.77636e-09,0
2.56,106.22,157.25,76.22,37,-3.55271e-11,-3.55271e-09,0
2.58,106.96,157.25,76.96,37,0,1.77636e-09,0
2.6,107.7,157.25,77.7,37,3.55271e-11,1.77636e-09,0
2.62,108.44,157.25,78.44,37,-3.55271e-11,-3.55271e-09,0
2.64,109.18,157.25,79.18,37,3.55271e-11,3.55271e-09,0
2.66,109.92,157.25,79.92,37,-3.55271e-11,-3.55271e-09,0
2.68,110.66,157.25,80.66,37,0,1.77636e-09,0
2.7,111.4,157.25,81.4,37,3.55271e-11,1.77636e-09,0
2.72,112.14,157.25,82.14,37,-3.55271e-11,-3.55271e-09,0
2.74,112.88,157.25,82.88,37,0,1.77636e-09,0
2.76,113.62,157.25,83.62,37,7.67386e-11,3.83693e-09,0
2.78,114.36,157.25,84.36,37,-7.67386e-11,-7.67386e-09,0
2.8,115.1,157.25,85.1,37,0,3.83693e-09,0
2.82,115.84,157.25,85.84,37,3.55271e-11,1.77636e-09,0
2.84,116.58,157.25,86.58,37,-3.55271e-11,-3.55271e-09,0
2.86,117.32,157.25,87.32,37,0,1.77636e-09,0
2.88,118.06,157.25,88.06,37,3.55271e-11,1.77636e-09,0
2.9,118.8,157.25,88.8,37,-3.55271e-11,-3.55271e-09,0
2.92,119.54,157.25,89.54,37,3.55271e-11,3.55271e-09,0
2.94,120.28,157.25,90.28,37,-3.55271e-11,-3.55271e-09,0
2.96,121.02,157.25,91.02,37,0,1.77636e-09,0
2.98,121.76,157.25,91.76,37,3.55271e-11,1.77636e-09,0
3,122.5,157.25,92.5,37,-3.55271e-11,-3.55271e-09,0
3.02,123.24,157.25,93.24,37,0,1.77636e-09,0
3.04,123.98,157.25,93.98,37,3.55271e-11,1.77636e-09,0
3.06,124.72,157.25,94.72,37,-3.55271e-11,-3.55271e-09,0
3.08,125.46,157.25,95.46,37,0,1.77636e-09,0
3.1,126.2,157.25,96.2,37,3.55271e-11,1.77636e-09,0
3.12,126.94,157.25,96.94,37,-3.55271e-11,-3.55271e-09,0
3.14,127.68,157.25,97.68,37,3.55271e-11,3.55271e-09,0
3.16,128.42,157.25,98.42,37,-7.10543e-11,-5.32907e-09,0
3.18,129.16,157.25,99.16,37,7.10543e-11,7.10543e-09,0
3.2,129.9,157.25,99.9,37,0,-3.55271e-09,0
3.22,130.64,157.25,100.64,37,-7.10543e-11,-3.55271e-09,0
3.24,131.38,157.25,101.38,37,7.10543e-11,7.10543e-09,0
3.26,132.115,157.25,102.115,36.75,-12.5,-625,0
3.28,132.835,157.25,102.835,36,-37.5,-1250,0
3.3,133.54,157.25,103.54,35.25,-37.5,2.02505e-09,0
3.32,134.23,157.25,104.23,34.5,-37.5,3.55271e-09,0
3.34,134.906,157.25,104.906,33.8,-35,125,0
3.36,135.567,157.25,105.567,33.05,-37.5,-125,0
3.38,136.213,157.25,106.213,32.3,-37.5,0,0
3.4,136.844,157.25,106.844,31.55,-37.5,3.55271e-09,0
3.42,137.46,157.25,107.46,30.8,-37.5,0,0
3.44,138.062,157.25,108.062,30.1,-35,125,0
3.46,138.649,157.25,108.649,29.35,-37.5,-125,0
3.48,139.221,157.25,109.221,28.6,-37.5,3.54383e-09,0
3.5,139.778,157.25,109.778,27.85,-37.5,-3.55271e-09,0
3.52,140.32,157.25,110.32,27.1,-37.5,3.55271e-09,0
3.54,140.848,157.25,110.848,26.4,-35,125,0
3.56,141.361,157.25,111.361,25.65,-37.5,-125,0
3.58,141.859,157.25,111.859,24.9,-37.5,1.06493e-08,0
3.6,142.342,157.25,112.342,24.15,-37.5,-7.10543e-09,0
3.62,142.81,157.25,112.81,23.4,-37.5,0,0
3.64,143.264,157.25,113.264,22.7,-35,125,0
3.66,143.703,157.25,113.703,21.95,-37.5,-125,0
3.68,144.127,157.25,114.127,21.2,-37.5,3.54383e-09,0
3.7,144.536,157.25,114.536,20.45,-37.5,-3.55271e-09,0
3.72,144.93,157.25,114.93,19.7,-37.5,3.55271e-09,0
3.74,145.31,157.25,115.31,19,-35,125,0
3.76,145.675,157.25,115.675,18.25,-37.5,-125,0
3.78,146.025,157.25,116.025,17.5,-37.5,-5.54508e-09,0
3.8,146.36,157.25,116.36,16.75,-37.5,4.56524e-09,0
3.82,146.68,157.25,116.68,16,-37.5,-3.55271e-09,0
3.84,146.986,157.25,116.986,15.3,-35,125,0
3.86,147.277,157.25,117.277,14.55,-37.5,-125,0
3.88,147.553,157.25,117.553,13.8,-37.5,-4.26326e-12,0
3.9,147.814,157.25,117.814,13.05,-37.5,-3.55271e-09,0
3.92,148.06,157.25,118.06,12.3,-37.5,3.55698e-09,0
3.94,148.292,157.25,118.292,11.6,-35,125,0
3.96,148.509,157.25,118.509,10.85,-37.5,-125,0
3.98,148.711,157.25,118.711,10.1,-37.5,7.10116e-09,0
4,148.898,157.25,118.898,9.35,-37.5,-1.06581e-08,0
4.02,149.07,157.25,119.07,8.6,-37.5,7.54348e-09,0
4.04,149.228,157.25,119.228,7.9,-35,125,0
4.06,149.371,157.25,119.371,7.15,-37.5,-125,0
4.08,149.499,157.25,119.499,6.4,-37.5,-1.50457e-09,0
4.1,149.612,157.25,119.612,5.65,-37.5,4.89067e-09,0
4.12,149.71,157.25,119.71,4.9,-37.5,-1.17133e-09,0
4.14,149.794,157.25,119.794,4.2,-35,125,0
4.16,149.863,157.25,119.863,3.45,-37.5,-125,0
4.18,149.917,157.25,119.917,2.7,-37.5,4.23555e-09,0
4.2,149.956,157.25,119.956,1.95,-37.5,-4.06963e-09,0
4.22,149.98,157.25,119.98,1.2,-37.5,3.90301e-09,0
4.24,149.989,157.25,119.989,0.45,-37.5,-1.82965e-10,0
