"time","x","y","position","velocity","acceleration","jerk","heading"
0,30,157.25,0,0,0,0,0
0.02,30.0086,157.25,0.00860014,0.430007,21.5004,1075.02,2.98521e-06
0.04,30.0296,157.25,0.0296005,1.05002,31.0005,475.008,1.02842e-05
0.06,30.0667,157.25,0.0667011,1.85503,40.2507,462.507,2.31414e-05
0.08,30.1184,157.25,0.118402,2.58504,36.5006,-187.503,4.10976e-05
0.1,30.185,157.25,0.185003,3.33006,37.2506,37.5003,6.42111e-05
0.12,30.2664,157.25,0.266404,4.07007,37.0006,-12.5002,9.24547e-05
0.14,30.3626,157.25,0.362606,4.81008,37.0006,3.95954e-05,0.000125835
0.16,30.4736,157.25,0.473608,5.55009,37.0006,1.79999e-05,0.000164355
0.18,30.5994,157.25,0.599412,6.2902,37.0054,0.240009,0.000248019
0.2,30.74,157.25,0.740019,7.03035,37.0076,0.111412,0.000395397
0.22,30.8954,157.25,0.895427,7.77039,37.0019,-0.289131,0.000558297
0.24,31.0656,157.25,1.06564,8.51043,37.0019,-9.59939e-05,0.000736703
0.26,31.2507,157.25,1.25065,9.25075,37.016,0.708639,0.00104873
0.28,31.4505,157.25,1.45047,9.99084,37.0048,-0.563888,0.00140039
0.3,31.6651,157.25,1.66509,10.731,37.0064,0.083136,0.00180554
0.32,31.8945,157.25,1.89451,11.4714,37.0197,0.664992,0.00237502
0.34,32.1387,157.25,2.13874,12.2115,37.0044,-0.765545,0.00298123
0.36,32.3978,157.25,2.39778,12.9519,37.0245,1.00355,0.00379144
0.38,32.6716,157.25,2.67162,13.6921,37.0084,-0.803102,0.00467179
0.4,32.9603,157.25,2.96028,14.4327,37.0279,0.97169,0.00578424
0.42,33.2637,157.25,3.26374,15.1729,37.0115,-0.819001,0.00699228
0.44,33.582,157.25,3.58201,15.9136,37.035,1.17424,0.00849163
0.46,33.9151,157.25,3.91509,16.654,37.0192,-0.788283,0.0101509
0.48,34.263,157.25,4.26298,17.3946,37.0294,0.511823,0.0120554
0.5,34.6257,157.25,4.62568,18.1353,37.0363,0.342395,0.0142622
0.52,35.0032,157.25,5.0032,18.8759,37.0296,-0.333576,0.0167157
0.54,35.3955,157.251,5.39554,19.6167,37.0398,0.508492,0.0194741
0.56,35.8027,157.251,5.80269,20.3576,37.0453,0.275924,0.0226365
0.58,36.2247,157.251,6.22466,21.0984,37.0415,-0.190458,0.0261446
0.6,36.6614,157.251,6.66144,21.8393,37.046,0.223784,0.0300357
0.62,37.113,157.251,7.11305,22.5803,37.0506,0.230383,0.0343482
0.64,37.5795,157.252,7.57948,23.3215,37.0595,0.447213,0.0391343
0.66,38.0607,157.252,8.06074,24.0628,37.062,0.126099,0.0444597
0.68,38.5568,157.252,8.55682,24.8041,37.0636,0.0764391,0.0503148
0.7,39.0677,157.253,9.06773,25.5455,37.071,0.370182,0.0567409
0.72,39.5935,157.253,9.59346,26.2869,37.0711,0.00657723,0.0637799
0.74,40.134,157.254,10.134,27.0285,37.081,0.4955,0.0714747
0.76,40.6894,157.255,10.6894,27.7702,37.0838,0.14159,0.0798687
0.78,41.2597,157.256,11.2597,28.512,37.0892,0.26774,0.0890065
0.8,41.8447,157.257,11.8448,29.2539,37.0946,0.269527,0.098933
0.82,42.4447,157.258,12.4447,29.9959,37.1001,0.274915,0.109694
0.84,43.0594,157.259,13.0594,30.7381,37.1096,0.477089,0.121369
0.86,43.689,157.26,13.689,31.4804,37.1172,0.378085,0.134021
0.88,44.3335,157.262,14.3335,32.2229,37.1249,0.38735,0.147666
0.9,44.9928,157.264,14.9928,32.9654,37.1247,-0.00968724,0.162352
0.92,45.6669,157.266,15.667,33.708,37.1309,0.306354,0.17813
0.94,46.356,157.268,16.356,34.4509,37.1454,0.726296,0.195121
0.96,47.0598,157.27,17.0599,35.194,37.1537,0.414291,0.213394
0.98,47.7786,157.273,17.7786,35.9372,37.1602,0.327724,0.232931
1,48.5122,157.276,18.5122,36.6805,37.1642,0.19808,0.253839
1.02,49.2532,157.28,19.2533,37.0538,18.6675,-924.833,0.276046
1.04,49.9943,157.284,19.9943,37.0511,-0.134804,-940.117,0.299213
1.06,50.7354,157.288,20.7355,37.0587,0.379227,25.7016,0.323457
1.08,51.4766,157.292,21.4767,37.0613,0.12959,-12.4818,0.348781
1.1,52.2179,157.297,22.218,37.064,0.134234,0.232176,0.375097
1.12,52.9592,157.302,22.9593,37.0668,0.13991,0.283818,0.402579
1.14,53.7006,157.307,23.7007,37.0693,0.12755,-0.617994,0.431124
1.16,54.442,157.313,24.4422,37.0722,0.141932,0.71908,0.460697
1.18,55.1834,157.319,25.1836,37.0702,-0.100122,-12.1027,0.491519
1.2,55.9249,157.325,25.9251,37.0777,0.375502,23.7812,0.523387
1.22,56.6665,157.332,26.6667,37.0808,0.15611,-10.9696,0.556373
1.24,57.408,157.34,27.4083,37.0793,-0.0769408,-11.6525,0.59059
1.26,58.1497,157.348,28.1501,37.0869,0.379337,22.8139,0.625885
1.28,58.8914,157.356,28.8918,37.0848,-0.104796,-24.2067,0.66239
1.3,59.6332,157.365,29.6336,37.0932,0.42389,26.4343,0.700105
1.32,60.375,157.374,30.3754,37.0909,-0.116551,-27.022,0.738932
1.34,61.1169,157.384,31.1174,37.0997,0.438902,27.7727,0.779066
1.36,61.8588,157.394,31.8594,37.0975,-0.107788,-27.3345,0.820385
1.38,62.6007,157.405,32.6014,37.101,0.174185,14.0986,0.86286
1.4,63.3427,157.416,33.3435,37.1044,0.166547,-0.381869,0.906723
1.42,64.0848,157.428,34.0857,37.1079,0.179003,0.622773,0.951754
1.44,64.8269,157.441,34.8279,37.1118,0.192938,0.696751,0.998041
1.46,65.5691,157.454,35.5702,37.1151,0.163429,-1.47544,1.04569
1.48,66.3113,157.469,36.3126,37.1189,0.189716,1.31437,1.09454
1.5,67.0535,157.484,37.0549,37.1181,-0.0365782,-11.3147,1.14476
1.52,67.7959,157.499,37.7975,37.1263,0.409539,22.3058,1.19631
1.54,68.5382,157.514,38.5399,37.1243,-0.101163,-25.5351,1.2491
1.56,69.2807,157.531,39.2825,37.13,0.284501,19.2832,1.30336
1.58,70.0231,157.548,40.0252,37.1331,0.15719,-6.36556,1.35893
1.6,70.7656,157.566,40.768,37.1374,0.21511,2.896,1.4158
1.62,71.5082,157.585,41.5108,37.1423,0.246083,1.54867,1.4742
1.64,72.2508,157.604,42.2536,37.1405,-0.0939292,-17.0006,1.5339
1.66,72.9934,157.624,42.9965,37.1452,0.238671,16.63,1.59504
1.68,73.7362,157.645,43.7395,37.1502,0.246846,0.408754,1.65766
1.7,74.4789,157.667,44.4826,37.1548,0.233422,-0.671181,1.72162
1.72,75.2218,157.69,45.2258,37.1601,0.264395,1.54864,1.78715
1.74,75.9646,157.713,45.969,37.1586,-0.0770927,-17.0744,1.85412
1.76,76.7075,157.739,46.7123,37.1652,0.330151,20.3622,1.92249
1.78,77.4504,157.764,47.4557,37.1692,0.200388,-6.48818,1.99253
1.8,78.1933,157.79,48.1991,37.1693,0.00548652,-9.74506,2.06398
1.82,78.9363,157.817,48.9426,37.1748,0.275517,13.5015,2.13698
1.84,79.6794,157.845,49.6862,37.1806,0.28729,0.588661,2.2116
1.86,80.4225,157.874,50.4298,37.181,0.0216568,-13.2817,2.28768
1.88,81.1656,157.904,51.1735,37.1871,0.303649,14.0996,2.36546
1.9,81.9087,157.936,51.9173,37.1879,0.0428423,-13.0403,2.44482
1.92,82.6519,157.969,52.6612,37.1959,0.398598,17.7878,2.5257
1.94,83.3952,158.002,53.4052,37.2003,0.218391,-9.01032,2.6084
1.96,84.1384,158.036,54.1492,37.2012,0.0470172,-8.56871,2.69263
1.98,84.8817,158.071,54.8934,37.2076,0.321738,13.736,2.77857
2,85.625,158.108,55.6376,37.2117,0.203513,-5.91123,2.86626
2.02,86.3683,158.146,56.3818,37.2105,-0.0601012,-13.1807,2.95553
2.04,87.1117,158.185,57.1262,37.2202,0.485951,27.3026,3.04671
2.06,87.855,158.225,57.8707,37.2219,0.0841876,-20.0882,3.13956
2.08,88.5984,158.266,58.6153,37.2288,0.345607,13.071,3.23415
2.1,89.3419,158.309,59.3599,37.2313,0.120976,-11.2316,3.33066
2.12,90.0853,158.353,60.1046,37.2361,0.242548,6.07863,3.42885
2.14,90.8287,158.398,60.8494,37.2388,0.135977,-5.32856,3.529
2.16,91.5722,158.445,61.5943,37.2463,0.3733,11.8661,3.63098
2.18,92.3155,158.493,62.3392,37.247,0.0333623,-16.9969,3.73475
2.2,93.059,158.542,63.0843,37.2553,0.415837,19.1238,3.84062
2.22,93.8025,158.593,63.8295,37.2579,0.130172,-14.2833,3.94826
2.24,94.5459,158.644,64.5747,37.2612,0.167175,1.85013,4.05795
2.26,95.2894,158.698,65.3202,37.2716,0.520291,17.6558,4.16962
2.28,96.0328,158.753,66.0656,37.2712,-0.0225434,-27.1417,4.28318
2.3,96.7762,158.809,66.8112,37.279,0.391099,20.6821,4.39898
2.32,97.5196,158.868,67.5568,37.2813,0.113402,-13.8848,4.51667
2.34,98.263,158.927,68.3026,37.2905,0.460415,17.3506,4.63655
2.36,99.0063,158.987,69.0484,37.2896,-0.0453894,-25.2902,4.75853
2.38,99.7497,159.05,69.7943,37.2977,0.407817,22.6603,4.88255
2.4,100.493,159.115,70.5406,37.3119,0.708805,15.0494,5.00893
2.42,101.236,159.181,71.2867,37.3056,-0.315803,-51.2304,5.13732
2.44,101.979,159.249,72.033,37.3158,0.511448,41.3625,5.2681
2.46,102.723,159.318,72.7796,37.3303,0.722159,10.5356,5.40107
2.48,103.465,159.389,73.5254,37.2906,-1.98289,-135.253,5.5363
2.5,104.209,159.461,74.2725,37.3558,3.26103,262.196,5.67397
2.52,104.952,159.536,75.019,37.3211,-1.73665,-249.884,5.81379
2.54,105.694,159.613,75.7657,37.3376,0.826062,128.136,5.95627
2.56,106.437,159.692,76.5128,37.3534,0.787838,-1.91122,6.10098
2.58,107.18,159.772,77.2602,37.3702,0.839596,2.58791,6.24824
2.6,107.922,159.854,78.0068,37.3319,-1.91438,-137.699,6.39799
2.62,108.666,159.938,78.7548,37.3985,3.33139,262.289,6.55018
2.64,109.408,160.025,79.5022,37.3725,-1.30006,-231.572,6.7051
2.66,110.15,160.113,80.2489,37.3343,-1.90726,-30.3602,6.86238
2.68,110.892,160.204,80.9971,37.409,3.7332,282.023,7.02261
2.7,111.634,160.296,81.7445,37.3714,-1.88154,-280.737,7.18529
2.72,112.376,160.391,82.4925,37.397,1.28212,158.183,7.35084
2.74,113.118,160.488,83.2408,37.4163,0.963364,-15.9379,7.51907
2.76,113.86,160.587,83.9895,37.4361,0.991043,1.38398,7.6901
2.78,114.601,160.688,84.7377,37.407,-1.45718,-122.411,7.86406
2.8,115.343,160.791,85.4862,37.4272,1.01007,123.363,8.04075
2.82,116.083,160.897,86.2343,37.4062,-1.04693,-102.85,8.2206
2.84,116.824,161.006,86.9829,37.427,1.03935,104.314,8.40314
2.86,117.565,161.116,87.7319,37.4497,1.13417,4.74116,8.58905
2.88,118.306,161.229,88.4814,37.4787,1.45186,15.8846,8.77773
2.9,119.046,161.345,89.2305,37.4527,-1.30179,-137.683,8.96979
2.92,119.786,161.462,89.98,37.4753,1.131,121.64,9.1648
2.94,120.525,161.584,90.7293,37.466,-0.466583,-79.8792,9.3632
2.96,121.265,161.706,91.479,37.4817,0.785142,62.5862,9.56475
2.98,122.005,161.833,92.2294,37.5231,2.06948,64.2168,9.7697
3,122.743,161.961,92.9792,37.4902,-1.64158,-185.553,9.97797
3.02,123.482,162.092,93.7289,37.4854,-0.244578,69.8501,10.1903
3.04,124.22,162.226,94.4791,37.51,1.22988,73.723,10.4055
3.06,124.958,162.363,95.23,37.5445,1.72476,24.7438,10.6238
3.08,125.695,162.503,95.9807,37.5328,-0.582076,-115.342,10.8462
3.1,126.432,162.646,96.7311,37.5216,-0.560898,1.05889,11.0726
3.12,127.169,162.791,97.4821,37.5485,1.34374,95.232,11.3022
3.14,127.906,162.941,98.234,37.5958,2.36653,51.1395,11.5352
3.16,128.641,163.092,98.9846,37.5284,-3.37093,-286.873,11.7726
3.18,129.377,163.247,99.7371,37.6282,4.99171,418.132,12.0142
3.2,130.112,163.405,100.488,37.5596,-3.43035,-421.103,12.2593
3.22,130.847,163.566,101.241,37.6107,2.55402,299.219,12.508
3.24,131.58,163.731,101.993,37.6052,-0.274103,-141.406,12.7612
3.26,132.314,163.899,102.745,37.6006,-0.228662,2.27204,13.019
3.28,133.047,164.07,103.498,37.6435,2.14351,118.609,13.2806
3.3,133.779,164.245,104.251,37.6501,0.331197,-90.6159,13.5461
3.32,134.511,164.423,105.003,37.647,-0.15622,-24.3708,13.8159
3.34,135.242,164.604,105.756,37.6472,0.00931532,8.27676,14.0911
3.36,135.972,164.789,106.51,37.657,0.488417,23.9551,14.3703
3.38,136.702,164.978,107.264,37.7167,2.98965,125.062,14.6537
3.4,137.43,165.171,108.017,37.6681,-2.43296,-271.13,14.9413
3.42,138.158,165.367,108.771,37.6723,0.212481,132.272,15.2347
3.44,138.885,165.567,109.526,37.7491,3.83733,181.243,15.5327
3.46,139.611,165.771,110.28,37.7038,-2.26533,-305.133,15.8352
3.48,140.338,165.978,111.035,37.7554,2.58225,242.379,16.1422
3.5,141.062,166.191,111.79,37.741,-0.720598,-165.143,16.4543
3.52,141.786,166.407,112.545,37.764,1.14887,93.4732,16.7723
3.54,142.508,166.627,113.3,37.7709,0.346214,-40.1326,17.0951
3.56,143.23,166.851,114.057,37.8079,1.84743,75.0609,17.4226
3.58,143.951,167.079,114.812,37.7693,-1.92561,-188.652,17.7551
3.6,144.67,167.312,115.568,37.8121,2.13756,203.159,18.0935
3.62,145.389,167.549,116.325,37.8409,1.43922,-34.9167,18.4378
3.64,146.106,167.791,117.081,37.8213,-0.981178,-121.02,18.7871
3.66,146.822,168.037,117.839,37.8672,2.29812,163.965,19.1417
3.68,147.536,168.287,118.595,37.8346,-1.62966,-196.389,19.5016
3.7,148.25,168.543,119.353,37.9025,3.39447,251.206,19.8677
3.72,148.961,168.802,120.111,37.8746,-1.39764,-239.605,20.2401
3.74,149.672,169.067,120.87,37.9446,3.50215,244.989,20.618
3.76,150.382,169.337,121.629,37.935,-0.482632,-199.239,21.0015
3.78,151.088,169.61,122.386,37.88,-2.74709,-113.223,21.3906
3.8,151.795,169.889,123.146,37.9857,5.28531,401.62,21.7858
3.82,152.499,170.174,123.905,37.9562,-1.47825,-338.178,22.1881
3.84,153.201,170.463,124.664,37.9719,0.788871,113.356,22.5962
3.86,153.901,170.758,125.424,37.9899,0.89885,5.49896,23.0102
3.88,154.599,171.058,126.184,38.0103,1.0208,6.09748,23.4303
3.9,155.296,171.363,126.945,38.0322,1.09471,3.69537,23.8563
3.92,155.991,171.672,127.706,38.0381,0.294179,-40.0264,24.2892
3.94,156.683,171.988,128.467,38.0412,0.153849,-7.01652,24.729
3.96,157.374,172.31,129.229,38.0909,2.48701,116.658,25.175
3.98,158.061,172.637,129.99,38.0552,-1.78507,-213.604,25.6272
4,158.747,172.969,130.752,38.1099,2.73621,226.064,26.0857
4.02,159.431,173.307,131.515,38.1452,1.76047,-48.7873,26.5505
4.04,160.111,173.65,132.277,38.0937,-2.57159,-216.603,27.0219
4.06,160.79,174,133.04,38.1587,3.24693,290.926,27.5007
4.08,161.465,174.356,133.803,38.1796,1.04655,-110.019,27.9859
4.1,162.138,174.717,134.567,38.1796,0.00272593,-52.1913,28.4774
4.12,162.808,175.083,135.331,38.1822,0.129296,6.32852,28.9753
4.14,163.475,175.457,136.095,38.2359,2.68315,127.693,29.4796
4.16,164.139,175.836,136.859,38.2001,-1.78965,-223.64,29.9902
4.18,164.8,176.221,137.624,38.2546,2.72667,225.816,30.5076
4.2,165.457,176.613,138.389,38.2337,-1.04886,-188.776,31.032
4.22,166.111,177.01,139.155,38.292,2.9166,198.273,31.5627
4.24,166.761,177.414,139.92,38.2769,-0.754431,-183.552,32.0995
4.26,167.408,177.824,140.686,38.298,1.05335,90.3893,32.6426
4.28,168.052,178.241,141.453,38.3477,2.48792,71.7281,33.1917
4.3,168.692,178.663,142.22,38.317,-1.53466,-201.129,33.7468
4.32,169.327,179.092,142.986,38.3316,0.728219,113.144,34.3078
4.34,169.958,179.528,143.753,38.3511,0.975948,12.3865,34.8753
4.36,170.586,179.97,144.521,38.3732,1.10363,6.38406,35.4489
4.38,171.209,180.419,145.289,38.4263,2.65547,77.5922,36.0279
4.4,171.828,180.874,146.057,38.3847,-2.08073,-236.81,36.6125
4.42,172.443,181.335,146.825,38.4154,1.53632,180.853,37.2023
4.44,173.052,181.803,147.594,38.4404,1.24884,-14.3739,37.7973
4.46,173.657,182.277,148.362,38.4081,-1.61346,-143.115,38.3973
4.48,174.258,182.758,149.132,38.4802,3.60479,260.912,39.0021
4.5,174.853,183.245,149.902,38.486,0.288807,-165.799,39.6116
4.52,175.443,183.738,150.67,38.4264,-2.97881,-163.381,40.2262
4.54,176.029,184.239,151.44,38.5094,4.15023,356.452,40.8449
4.56,176.608,184.745,152.21,38.4882,-1.06019,-260.521,41.4676
4.58,177.182,185.258,152.98,38.5084,1.00985,103.502,42.094
4.6,177.751,185.779,153.751,38.5293,1.04489,1.75237,42.724
4.62,178.314,186.305,154.521,38.5231,-0.308347,-67.662,43.3572
4.64,178.871,186.837,155.292,38.5182,-0.24818,3.00834,43.9934
4.66,179.422,187.375,156.062,38.5176,-0.0290236,10.9578,44.6324
4.68,179.968,187.919,156.832,38.5212,0.181642,10.5333,45.2739
4.7,180.507,188.47,157.604,38.5641,2.14255,98.0455,45.9177
4.72,181.041,189.026,158.375,38.5397,-1.22101,-168.178,46.5635
4.74,181.567,189.59,159.146,38.557,0.86579,104.34,47.2108
4.76,182.088,190.159,159.917,38.5739,0.848434,-0.867798,47.8594
4.78,182.602,190.733,160.688,38.5266,-2.36885,-160.864,48.5089
4.8,183.11,191.314,161.459,38.5871,3.02843,269.864,49.1591
4.82,183.611,191.9,162.231,38.5533,-1.6933,-236.086,49.8096
4.84,184.106,192.492,163.002,38.5832,1.49823,159.577,50.4602
4.86,184.592,193.089,163.773,38.5206,-3.12965,-231.394,51.1105
4.88,185.074,193.693,164.545,38.5958,3.75758,344.361,51.7602
4.9,185.548,194.3,165.315,38.5336,-3.11103,-343.43,52.4089
4.92,186.015,194.914,166.086,38.5545,1.04542,207.823,53.0563
4.94,186.474,195.533,166.857,38.5405,-0.700325,-87.2874,53.7022
4.96,186.928,196.157,167.628,38.5596,0.957586,82.8955,54.3461
4.98,187.373,196.786,168.399,38.5537,-0.29588,-62.6733,54.9879
5,187.812,197.419,169.17,38.5107,-2.14988,-92.7002,55.6272
5.02,188.243,198.058,169.94,38.513,0.11544,113.266,56.2638
5.04,188.668,198.701,170.711,38.5469,1.69358,78.9071,56.8973
5.06,189.085,199.349,171.481,38.5155,-1.571,-163.229,57.5276
5.08,189.494,200.001,172.251,38.5025,-0.648762,46.1117,58.154
5.1,189.897,200.656,173.02,38.4619,-2.02804,-68.9637,58.7763
5.12,190.293,201.317,173.791,38.5099,2.39656,221.23,59.3944
5.14,190.681,201.981,174.56,38.4682,-2.08456,-224.056,60.0083
5.16,191.061,202.65,175.329,38.4554,-0.639986,72.2287,60.6175
5.18,191.435,203.322,176.098,38.4713,0.793914,71.695,61.222
5.2,191.802,203.997,176.867,38.4221,-2.45796,-162.594,61.8215
5.22,192.161,204.677,177.635,38.4205,-0.0781667,118.99,62.4158
5.24,192.513,205.36,178.404,38.4219,0.0692101,7.36884,63.0043
5.26,192.859,206.046,179.172,38.4047,-0.858599,-46.3905,63.5867
5.28,193.197,206.735,179.939,38.3695,-1.76175,-45.1574,64.1634
5.3,193.528,207.427,180.707,38.3828,0.665398,121.357,64.7342
5.32,193.851,208.123,181.474,38.3549,-1.39552,-103.046,65.299
5.34,194.168,208.821,182.241,38.3511,-0.191627,60.1945,65.8576
5.36,194.479,209.521,183.007,38.3046,-2.32529,-106.683,66.41
5.38,194.782,210.226,183.773,38.3117,0.358509,134.19,66.9557
5.4,195.079,210.931,184.539,38.288,-1.18875,-77.3627,67.4939
5.42,195.368,211.64,185.305,38.2768,-0.556934,31.5906,68.0256
5.44,195.652,212.351,186.07,38.2878,0.550453,55.3693,68.5507
5.46,195.928,213.065,186.835,38.2369,-2.54502,-154.773,69.0691
5.48,196.197,213.78,187.599,38.207,-1.49861,52.3202,69.5807
5.5,196.462,214.497,188.364,38.2441,1.85778,167.82,70.0856
5.52,196.719,215.216,189.127,38.1515,-4.62989,-324.383,70.5821
5.54,196.969,215.937,189.891,38.1764,1.24392,293.69,71.0716
5.56,197.214,216.66,190.654,38.1574,-0.951068,-109.749,71.5543
5.58,197.452,217.385,191.417,38.1408,-0.827936,6.15664,72.0301
5.6,197.684,218.111,192.179,38.127,-0.692807,6.75642,72.499
5.62,197.91,218.839,192.942,38.1299,0.147579,42.0193,72.9607
5.64,198.131,219.568,193.703,38.0694,-3.02826,-158.792,73.4139
5.66,198.345,220.299,194.464,38.0633,-0.302249,136.301,73.8603
5.68,198.553,221.031,195.226,38.0736,0.516651,40.945,74.2999
5.7,198.757,221.764,195.987,38.0377,-1.79544,-115.605,74.7327
5.72,198.954,222.499,196.747,38.0388,0.0555082,92.5474,75.1587
5.74,199.146,223.234,197.508,38.0023,-1.82751,-94.1511,75.576
5.76,199.333,223.97,198.267,37.9718,-1.524,15.1757,75.9864
5.78,199.514,224.707,199.026,37.9319,-1.99716,-23.6577,76.3902
5.8,199.69,225.445,199.785,37.9662,1.71565,185.64,76.7874
5.82,199.861,226.185,200.544,37.942,-1.20889,-146.227,77.1781
5.84,200.026,226.925,201.302,37.9031,-1.94287,-36.6989,77.56
5.86,200.187,227.666,202.061,37.9423,1.95553,194.92,77.9354
5.88,200.344,228.408,202.818,37.8853,-2.8494,-240.247,78.3045
5.9,200.494,229.15,203.576,37.8583,-1.34895,75.0223,78.6673
5.92,200.642,229.892,204.333,37.8605,0.112478,73.0714,79.0229
5.94,200.783,230.636,205.089,37.834,-1.3276,-72.0041,79.3708
5.96,200.921,231.379,205.845,37.7919,-2.10395,-38.8171,79.7127
5.98,201.054,232.124,206.602,37.8309,1.94895,202.645,80.0485
6,201.181,232.868,207.357,37.7737,-2.86148,-240.521,80.3784
6.02,201.306,233.614,208.113,37.7775,0.193124,152.73,80.6998
6.04,201.426,234.36,208.868,37.7803,0.138002,-2.75611,81.0153
6.06,201.542,235.105,209.623,37.7278,-2.62278,-138.039,81.3252
6.08,201.654,235.852,210.378,37.741,0.657364,164.007,81.6294
6.1,201.762,236.598,211.132,37.6931,-2.39553,-152.645,81.9258
6.12,201.866,237.345,211.886,37.7001,0.34953,137.253,82.2162
6.14,201.965,238.092,212.64,37.7094,0.466294,5.83816,82.5011
6.16,202.062,238.838,213.392,37.6275,-4.09286,-227.958,82.7807
6.18,202.155,239.586,214.146,37.6836,2.80341,344.814,83.0528
6.2,202.244,240.334,214.899,37.6513,-1.61451,-220.896,83.319
6.22,202.33,241.082,215.652,37.6177,-1.6781,-3.17944,83.5809
6.24,202.412,241.829,216.403,37.5852,-1.62852,2.47912,83.8362
6.26,202.491,242.577,217.155,37.6034,0.911597,127.006,84.0851
6.28,202.568,243.324,217.907,37.5759,-1.37533,-114.346,84.329
6.3,202.64,244.073,218.659,37.5906,0.733512,105.442,84.5665
6.32,202.71,244.821,219.41,37.5691,-1.07272,-90.3116,84.799
