"time","x","y","position","velocity","acceleration","jerk","heading"
0,36.2471,256.63,0,0,120,0,0
0.02,36.402,256.63,0.154919,2.4,120,0,-0.00256581
0.04,36.557,256.63,0.309839,4.8,120,0,-0.00513162
0.06,36.7119,256.63,0.464758,7.2,120,0,-0.00769743
0.08,36.8668,256.63,0.619677,9.6,120,0,-0.0102632
0.1,37.0217,256.63,0.774597,12,120,0,-0.0128291
0.12,37.1766,256.63,0.929516,14.4,120,0,-0.0153949
0.14,37.451,256.629,1.20384,16.8,120,0,-0.0261355
0.16,37.825,256.629,1.57785,19.2,120,0,-0.0437003
0.18,38.199,256.629,1.95186,21.6,120,0,-0.0612651
0.2,38.6718,256.628,2.42468,24,120,0,-0.0961932
0.22,39.1592,256.627,2.9121,26.4,120,0,-0.133686
0.24,39.721,256.626,3.4739,28.8,120,0,-0.190949
0.26,40.3062,256.624,4.0591,31.2,120,0,-0.25505
0.28,40.9625,256.62,4.71535,33.6,120,0,-0.344309
0.3,41.6581,256.616,5.41103,36,120,0,-0.451002
0.32,42.3959,256.609,6.14888,38.4,120,0,-0.577408
0.34,43.1852,256.6,6.93823,40.8,120,0,-0.731161
0.36,44.0286,256.588,7.78169,43.2,120,0,-0.918545
0.38,44.9173,256.572,8.6705,45.6,120,0,-1.13789
0.4,45.8528,256.552,9.60629,48,120,0,-1.39394
0.42,46.836,256.525,10.5898,50.4,120,0,-1.6915
0.44,47.8668,256.492,11.6211,52.8,120,0,-2.03549
0.46,48.945,256.45,12.7002,55.2,120,0,-2.43097
0.48,50.0703,256.398,13.8267,57.6,120,0,-2.88321
0.5,51.2419,256.334,15,60,120,0,-3.39771
0.52,52.466,256.255,16.2267,62.4,120,0,-3.99157
0.54,53.7353,256.16,17.4996,64.8,120,0,-4.6625
0.56,55.0487,256.044,18.818,67.2,120,0,-5.42049
0.58,56.4094,255.905,20.1858,69.6,120,0,-6.28611
0.6,57.8165,255.739,21.6028,72,120,0,-7.2515
0.62,59.265,255.541,23.0646,74.4,120,0,-8.3289
0.64,60.7605,255.306,24.5785,76.8,120,0,-9.56123
0.66,62.2943,255.03,26.1371,79.2,120,0,-10.9316
0.68,63.8696,254.704,27.7457,81.6,120,0,-12.4717
0.7,65.4814,254.323,29.402,84,120,0,-14.199
0.72,67.1251,253.879,31.1047,86.4,120,0,-16.126
0.74,68.7991,253.362,32.8569,88.8,120,0,-18.2754
0.76,70.4971,252.763,34.6576,91.2,120,0,-20.6637
0.78,72.2111,252.072,36.5057,93.6,120,0,-23.302
0.8,73.9331,251.28,38.4016,96,120,0,-26.2001
0.82,75.6532,250.375,40.3454,98.4,120,0,-29.3574
0.84,77.3599,249.348,42.3373,100.8,120,0,-32.7538
0.86,79.04,248.192,44.3773,103.2,120,0,-36.3669
0.88,80.6793,246.899,46.4653,105.6,120,0,-40.1548
0.9,82.2637,245.467,48.6012,108,120,0,-44.0531
0.92,83.7793,243.896,50.7848,110.4,120,0,-47.9922
0.94,85.2141,242.188,53.0161,112.8,120,0,-51.9022
0.96,86.5596,240.347,55.2969,115.2,120,0,-55.713
0.98,87.8075,238.382,57.625,117.6,120,0,-59.3661
1,88.9538,236.302,60,120,4.88951e-05,0,-62.8182
1.02,89.9884,234.137,62.4,120,0,0,-66.0068
1.04,90.9066,231.92,64.8,120,0,0,-68.9067
1.06,91.7172,229.661,67.2,120,0,0,-71.524
1.08,92.4292,227.369,69.6,120,0,0,-73.8824
1.1,93.051,225.051,72,120,0,0,-76.0173
1.12,93.5912,222.713,74.4,120,0,0,-77.9196
1.14,94.0574,220.359,76.8,120,0,0,-79.6359
1.16,94.4565,217.992,79.2,120,0,0,-81.1808
1.18,94.7949,215.616,81.6,120,0,0,-82.5719
1.2,95.0785,213.233,84,120,0,0,-83.8265
1.22,95.3125,210.845,86.4,120,0,0,-84.9569
1.24,95.5016,208.452,88.8,120,0,0,-85.9832
1.26,95.6499,206.057,91.2,120,0,0,-86.9074
1.28,95.7614,203.659,93.6,120,0,0,-87.7468
1.3,95.8395,201.261,96,120,0,0,-88.5054
1.32,95.8874,198.861,98.4,120,0,0,-89.1917
1.34,95.9079,196.461,100.8,120,0,0,-89.8118
1.36,95.9038,194.061,103.2,120,0,0,-90.3738
1.38,95.8773,191.661,105.6,120,0,0,-90.8775
1.4,95.8307,189.262,108,120,0,0,-91.3336
1.42,95.7661,186.863,110.4,120,0,0,-91.7393
1.44,95.6855,184.464,112.8,120,0,0,-92.1018
1.46,95.5905,182.066,115.2,120,0,0,-92.4243
1.48,95.4829,179.668,117.6,120,0,0,-92.7054
1.5,95.3643,177.271,120,120,0,0,-92.9511
1.52,95.2362,174.875,122.4,120,0,0,-93.1612
1.54,95.1,172.479,124.8,120,0,0,-93.3374
1.56,94.9571,170.083,127.2,120,0,0,-93.481
1.58,94.8088,167.688,129.6,120,0,0,-93.5938
1.6,94.6565,165.292,132,120,0,0,-93.6763
1.62,94.5014,162.897,134.4,120,0,0,-93.727
1.64,94.3448,160.502,136.8,120,0,0,-93.7496
1.66,94.1878,158.108,139.2,120,0,0,-93.743
1.68,94.0317,155.713,141.6,120,0,0,-93.706
1.7,93.8778,153.318,144,120,0,0,-93.6405
1.72,93.7273,150.922,146.4,120,0,0,-93.5453
1.74,93.5813,148.527,148.8,120,0,0,-93.42
1.76,93.4413,146.131,151.2,120,0,0,-93.2632
1.78,93.3084,143.735,153.6,120,0,0,-93.0755
1.8,93.184,141.338,156,120,0,0,-92.8566
1.82,93.0696,138.941,158.4,120,0,0,-92.6007
1.84,92.9666,136.543,160.8,120,0,0,-92.3114
1.86,92.8764,134.144,163.2,120,0,0,-91.9854
1.88,92.8007,131.746,165.6,120,0,0,-91.6183
1.9,92.7412,129.346,168,120,0,0,-91.212
1.92,92.6997,126.947,170.4,120,0,0,-90.7599
1.94,92.6781,124.547,172.8,120,0,0,-90.2603
1.96,92.6784,122.147,175.2,120,0,0,-89.7118
1.98,92.7029,119.747,177.6,120,0,0,-89.1053
2,92.7539,117.348,180,120,0,0,-88.4427
2.02,92.8341,114.949,182.4,120,0,0,-87.7116
2.04,92.9463,112.552,184.8,120,0,0,-86.9124
2.06,93.0935,110.156,187.2,120,0,0,-86.0337
2.08,93.2792,107.763,189.6,120,0,0,-85.0711
2.1,93.507,105.374,192,120,0,0,-84.0133
2.12,93.7809,102.99,194.4,120,0,0,-82.8504
2.14,94.1056,100.612,196.8,120,0,0,-81.5727
2.16,94.4858,98.2424,199.2,120,0,0,-80.1642
2.18,94.9269,95.8834,201.6,120,0,0,-78.6138
2.2,95.4349,93.5378,204,120,0,0,-76.9106
2.22,96.016,91.2094,206.4,120,0,0,-75.0246
2.24,96.6773,88.9024,208.8,120,0,0,-72.9476
2.26,97.4258,86.6223,211.2,120,0,0,-70.6432
2.28,98.2693,84.3756,213.6,120,0,0,-68.1305
2.3,99.2152,82.1701,216,120,0,0,-65.3801
2.32,100.271,80.0152,218.4,120,0,0,-62.3501
2.34,101.444,77.9215,220.8,120,0,0,-59.0785
2.36,102.738,75.9009,223.2,120,0,0,-55.5665
2.38,104.158,73.9663,225.6,120,0,0,-51.8317
2.4,105.703,72.1309,228,120,0,0,-47.9214
2.42,107.373,70.4072,230.4,120,0,0,-43.8911
2.44,109.16,68.8062,232.8,120,0,0,-39.8132
2.46,111.056,67.3362,235.2,120,0,0,-35.7633
2.48,113.051,66.0024,237.6,120,0,0,-31.818
2.5,115.131,64.8062,240,120,0,0,-28.0384
2.52,117.284,63.7458,242.4,120,0,0,-24.4835
2.54,119.496,62.8163,244.8,120,0,0,-21.1789
2.56,121.756,62.0105,247.2,120,0,0,-18.1459
2.58,124.055,61.32,249.6,120,0,0,-15.3882
2.6,126.382,60.7354,252,120,0,0,-12.8974
2.62,128.732,60.2468,254.4,120,0,0,-10.6719
2.64,131.098,59.8448,256.8,120,0,0,-8.68263
2.66,133.476,59.5201,259.2,120,0,0,-6.92617
2.68,135.862,59.2638,261.6,120,0,0,-5.38656
2.7,138.254,59.0674,264,120,0,0,-4.04327
2.72,140.649,58.923,266.4,120,0,0,-2.89433
2.74,143.047,58.8232,268.8,120,0,0,-1.91628
2.76,145.446,58.7607,271.2,120,0,0,-1.10713
2.78,147.846,58.7287,273.6,120,0,0,-0.461345
2.8,150.246,58.7204,276,120,0,0,0.0312634
2.82,152.646,58.7305,278.4,120,0,0,0.468964
2.84,155.046,58.7606,280.8,120,0,0,0.981689
2.86,157.445,58.8135,283.2,120,0,0,1.56486
2.88,159.844,58.8923,285.6,120,0,0,2.21446
2.9,162.242,58.9997,288,120,0,0,2.92496
2.92,164.638,59.1381,290.4,120,0,0,3.69929
2.94,167.031,59.3099,292.8,120,0,0,4.52715
2.96,169.422,59.5175,295.2,120,0,0,5.40721
2.98,171.81,59.7628,297.6,120,0,0,6.33622
3,174.193,60.0477,300,120,0,0,7.31094
3.02,176.57,60.3741,302.4,120,0,0,8.32917
3.04,178.942,60.7434,304.8,120,0,0,9.38425
3.06,181.306,61.1571,307.2,120,0,0,10.4739
3.08,183.662,61.6163,309.6,120,0,0,11.595
3.1,186.008,62.1221,312,120,0,0,12.7424
3.12,188.343,62.6752,314.4,120,0,0,13.9131
3.14,190.666,63.2763,316.8,120,0,0,15.1015
3.16,192.977,63.9258,319.2,120,0,0,16.3042
3.18,195.273,64.6239,321.6,120,0,0,17.5171
3.2,197.554,65.3705,324,120,0,0,18.7354
3.22,199.818,66.1655,326.4,120,0,0,19.955
3.24,202.065,67.0085,328.8,120,0,0,21.1719
3.26,204.294,67.8989,331.2,120,0,0,22.3821
3.28,206.503,68.836,333.6,120,0,0,23.5812
3.3,208.693,69.8189,336,120,0,0,24.7664
3.32,210.862,70.8465,338.4,120,0,0,25.9333
3.34,213.009,71.9177,340.8,120,0,0,27.0799
3.36,215.135,73.0312,343.2,120,0,0,28.2022
3.38,217.239,74.1857,345.6,120,0,0,29.2973
3.4,219.321,75.3797,348,120,0,0,30.3644
3.42,221.381,76.6116,350.4,120,0,0,31.3995
3.44,223.418,77.88,352.8,120,0,0,32.4026
3.46,225.434,79.1833,355.2,120,0,0,33.3697
3.48,227.427,80.5198,357.6,120,0,0,34.3008
3.5,229.399,81.8879,360,120,0,0,35.1961
3.52,231.35,83.2859,362.4,120,0,0,36.0518
3.54,233.28,84.7123,364.8,120,0,0,36.868
3.56,235.19,86.1653,367.2,120,0,0,37.6444
3.58,237.081,87.6435,369.6,120,0,0,38.3803
3.6,238.953,89.1451,372,120,0,0,39.0767
3.62,240.807,90.6687,374.4,120,0,0,39.728
3.64,242.645,92.2126,376.8,120,0,0,40.3389
3.66,244.466,93.7754,379.2,120,0,0,40.9073
3.68,246.273,95.3554,381.6,120,0,0,41.4326
3.7,248.065,96.9513,384,120,0,0,41.914
3.72,249.845,98.5615,386.4,120,0,0,42.3498
3.74,251.613,100.184,388.8,120,0,0,42.7424
3.76,253.37,101.819,391.2,120,0,0,43.0893
3.78,255.119,103.463,393.6,120,0,0,43.3877
3.8,256.859,105.116,396,120,0,0,43.6399
3.82,258.593,106.775,398.4,120,0,0,43.8414
3.84,260.321,108.44,400.8,120,0,0,43.994
3.86,262.046,110.109,403.2,120,0,0,44.094
3.88,263.769,111.78,405.6,120,0,0,44.1377
3.9,265.492,113.451,408,120,0,0,44.1265
3.92,267.215,115.121,410.4,120,0,0,44.0534
3.94,268.942,116.788,412.8,120,0,0,43.9195
3.96,270.673,118.45,415.2,120,0,0,43.7187
3.98,272.411,120.105,417.6,120,0,0,43.4469
4,274.159,121.75,420,120,0,0,43.1017
4.02,275.917,123.384,422.4,120,0,0,42.6718
4.04,277.688,125.003,424.8,120,0,0,42.1555
4.06,279.476,126.605,427.2,120,0,0,41.5458
4.08,281.281,128.186,429.6,120,0,0,40.831
4.1,283.108,129.742,432,120,0,0,40.0094
4.12,284.958,131.271,434.4,120,0,0,39.0641
4.14,286.835,132.766,436.8,120,0,0,37.9889
4.16,288.742,134.224,439.2,120,0,0,36.7702
4.18,290.681,135.638,441.6,120,0,0,35.395
4.2,292.655,137.003,444,120,0,0,33.8518
4.22,294.668,138.31,446.4,120,0,0,32.1216
4.24,296.721,139.553,448.8,120,0,0,30.1978
4.26,298.816,140.723,451.2,120,0,0,28.0665
4.28,300.956,141.809,453.6,120,0,0,25.7211
4.3,303.14,142.803,456,120,0,0,23.1649
4.32,305.368,143.695,458.4,120,0,0,20.3948
4.34,307.638,144.474,460.8,120,0,0,17.4355
4.36,309.946,145.131,463.2,120,0,0,14.3086
4.38,312.287,145.658,465.6,120,0,0,11.0465
4.4,314.655,146.049,468,120,0,0,7.70516
4.42,317.041,146.301,470.4,120,0,0,4.33555
4.44,319.438,146.412,472.8,120,0,0,0.996539
4.46,321.838,146.385,475.2,120,0,0,-2.2591
4.48,324.232,146.224,477.6,120,0,0,-5.3821
4.5,326.614,145.937,480,120,0,0,-8.34405
4.52,328.979,145.531,482.4,120,0,0,-11.0931
4.54,331.323,145.016,484.8,120,0,0,-13.647
4.56,333.643,144.401,487.2,120,0,0,-15.9712
4.58,335.937,143.697,489.6,120,0,0,-18.0857
4.6,338.206,142.913,492,120,0,0,-19.999
4.62,340.448,142.058,494.4,120,0,0,-21.6952
4.64,342.666,141.14,496.8,120,0,0,-23.2151
4.66,344.86,140.168,499.2,120,0,0,-24.5592
4.68,347.032,139.147,501.6,120,0,0,-25.7348
4.7,349.184,138.085,504,120,0,0,-26.7605
4.72,351.318,136.987,506.4,120,0,0,-27.6463
4.74,353.436,135.858,508.8,120,0,0,-28.4049
4.76,355.541,134.705,511.2,120,0,0,-29.0302
4.78,357.634,133.53,513.6,120,0,0,-29.5361
4.8,359.717,132.34,516,120,0,0,-29.9319
4.82,361.794,131.136,518.4,120,0,0,-30.2144
4.84,363.866,129.925,520.8,120,0,0,-30.3941
4.86,365.935,128.709,523.2,120,0,0,-30.4692
4.88,368.004,127.492,525.6,120,0,0,-30.4403
4.9,370.074,126.278,528,120,0,0,-30.3066
4.92,372.148,125.071,530.4,120,0,0,-30.0614
4.94,374.229,123.875,532.8,120,0,0,-29.707
4.96,376.318,122.693,535.2,120,0,0,-29.2898
4.98,378.415,121.526,537.6,120,0,0,-28.9362
5,380.518,120.37,540,120,0,0,-28.6443
5.02,382.627,119.224,542.4,120,0,0,-28.4141
5.04,384.74,118.086,544.8,120,0,0,-28.2374
5.06,386.855,116.952,547.2,120,0,0,-28.1132
5.08,388.973,115.823,549.6,120,0,0,-28.0381
5.1,391.092,114.696,552,120,0,0,-28.0074
5.12,393.211,113.569,554.4,120,0,0,-28.0219
5.14,395.329,112.44,556.8,120,0,0,-28.0762
5.16,397.446,111.309,559.2,120,0,0,-28.1697
5.18,399.56,110.174,561.6,120,0,0,-28.3005
5.2,401.672,109.033,564,120,0,0,-28.4675
5.22,403.78,107.886,566.4,120,0,0,-28.6669
5.24,405.883,106.73,568.8,120,0,0,-28.8971
5.26,407.982,105.566,571.2,120,0,0,-29.1582
5.28,410.075,104.391,573.6,120,0,0,-29.4485
5.3,412.162,103.206,576,120,0,0,-29.7651
5.32,414.241,102.008,578.4,120,0,0,-30.1066
5.34,416.314,100.798,580.8,120,0,0,-30.4711
5.36,418.378,99.5741,583.2,120,0,0,-30.8579
5.38,420.434,98.3359,585.6,120,0,0,-31.2643
5.4,422.481,97.0829,588,120,0,0,-31.6871
5.42,424.519,95.8144,590.4,120,0,0,-32.1255
5.44,426.546,94.5303,592.8,120,0,0,-32.576
5.46,428.563,93.23,595.2,120,0,0,-33.036
5.48,430.57,91.9135,597.6,120,0,0,-33.5026
5.5,432.566,90.5805,600,120,0,0,-33.9725
5.52,434.551,89.2313,602.4,120,0,0,-34.4423
5.54,436.524,87.8658,604.8,120,0,0,-34.9081
5.56,438.487,86.4845,607.2,120,0,0,-35.3658
5.58,440.439,85.0877,609.6,120,0,0,-35.8112
5.6,442.38,83.6761,612,120,0,0,-36.2399
5.62,444.31,82.2503,614.4,120,0,0,-36.6462
5.64,446.231,80.8113,616.8,120,0,0,-37.026
5.66,448.142,79.3601,619.2,120,0,0,-37.3734
5.68,450.046,77.8979,621.6,120,0,0,-37.683
5.7,451.941,76.4262,624,120,0,0,-37.9502
5.72,453.831,74.9465,626.4,120,0,0,-38.1669
5.74,455.716,73.4605,628.8,120,0,0,-38.3292
5.76,457.597,71.9701,631.2,120,0,0,-38.4291
5.78,459.476,70.4776,633.6,120,0,0,-38.4622
5.8,461.356,68.9851,636,120,0,0,-38.4242
5.82,463.237,67.4951,638.4,120,0,0,-38.307
5.84,465.123,66.0102,640.8,120,0,0,-38.1095
5.86,467.014,64.5334,643.2,120,0,0,-37.8248
5.88,468.915,63.0675,645.6,120,0,0,-37.4467
5.9,470.826,61.6156,648,120,0,0,-36.9767
5.92,472.75,60.1811,650.4,120,0,0,-36.4097
5.94,474.689,58.7673,652.8,120,0,0,-35.7489
5.96,476.646,57.3777,655.2,120,0,0,-34.9895
5.98,478.622,56.0158,657.6,120,0,0,-34.1347
6,480.619,54.685,660,120,0,0,-33.1927
6.02,482.639,53.3889,662.4,120,0,0,-32.1626
6.04,484.683,52.1307,664.8,120,0,0,-31.0533
6.06,486.751,50.9137,667.2,120,0,0,-29.8716
6.08,488.845,49.7407,669.6,120,0,0,-28.6292
6.1,490.964,48.6144,672,120,0,0,-27.337
6.12,493.109,47.5371,674.4,120,0,0,-26.0014
6.14,495.278,46.5106,676.8,120,0,0,-24.6386
6.16,497.472,45.5364,679.2,120,0,0,-23.2595
6.18,499.688,44.6153,681.6,120,0,0,-21.8755
6.2,501.926,43.748,684,120,0,0,-20.4967
6.22,504.183,42.9345,686.4,120,0,0,-19.1356
6.24,506.46,42.1745,688.8,120,0,0,-17.7991
6.26,508.753,41.4671,691.2,120,0,0,-16.4958
6.28,511.062,40.8113,693.6,120,-72.0001,0,-15.232
6.3,513.368,40.2098,695.983,118,-120,0,-14.0204
6.32,515.639,39.6669,698.318,115.6,-120,0,-12.8809
6.34,517.874,39.178,700.606,113.2,-120,0,-11.8119
6.36,520.071,38.7388,702.847,110.8,-120,0,-10.8115
6.38,522.228,38.3453,705.039,108.4,-120,0,-9.87789
6.4,524.342,37.9938,707.183,106,-120,0,-9.01404
6.42,526.414,37.6802,709.278,103.6,-120,0,-8.21068
6.44,528.443,37.4012,711.326,101.2,-120,0,-7.46562
6.46,530.427,37.1535,713.326,98.8,-120,0,-6.77683
6.48,532.367,36.9342,715.278,96.4,-120,0,-6.14012
6.5,534.261,36.7404,717.182,94,-120,0,-5.55215
6.52,536.11,36.5697,719.039,91.6,-120,0,-5.00958
6.54,537.911,36.4198,720.846,89.2,-120,0,-4.51199
6.56,539.666,36.2885,722.605,86.8,-120,0,-4.0557
6.58,541.374,36.1739,724.317,84.4,-120,0,-3.63742
6.6,543.036,36.0739,725.983,82,-120,0,-3.25278
6.62,544.648,35.9874,727.597,79.6,-120,0,-2.90176
6.64,546.215,35.9126,729.166,77.2,-120,0,-2.57965
6.66,547.733,35.8482,730.685,74.8,-120,0,-2.28819
6.68,549.205,35.7929,732.158,72.4,-120,0,-2.02255
6.7,550.626,35.7458,733.58,70,-120,0,-1.7816
6.72,552.004,35.7057,734.959,67.6,-120,0,-1.56157
6.74,553.329,35.6719,736.284,65.2,-120,0,-1.36569
6.76,554.608,35.6435,737.564,62.8,-120,0,-1.18687
6.78,555.841,35.6197,738.797,60.4,-120,0,-1.02726
6.8,557.027,35.6,739.983,58,-120,0,-0.884177
6.82,558.161,35.5838,741.117,55.6,-120,0,-0.758032
6.84,559.248,35.5705,742.204,53.2,-120,0,-0.646083
6.86,560.287,35.5597,743.243,50.8,-120,0,-0.547118
6.88,561.279,35.5511,744.235,48.4,-120,0,-0.4601
6.9,562.223,35.5441,745.179,46,-120,0,-0.383967
6.92,563.121,35.5387,746.077,43.6,-120,0,-0.317624
6.94,563.969,35.5344,746.925,41.2,-120,0,-0.260822
6.96,564.763,35.5311,747.72,38.8,-120,0,-0.213074
6.98,565.512,35.5286,748.468,36.4,-120,0,-0.172219
7,566.219,35.5268,749.175,34,-120,0,-0.136995
7.02,566.875,35.5254,749.832,31.6,-120,0,-0.108132
7.04,567.474,35.5244,750.43,29.2,-120,0,-0.085181
7.06,568.051,35.5236,751.007,26.8,-120,0,-0.0643702
7.08,568.538,35.5232,751.494,24.4,-120,0,-0.0506028
7.1,569.025,35.5228,751.981,22,-120,0,-0.0368355
7.12,569.404,35.5226,752.36,19.6,-120,0,-0.0290392
7.14,569.778,35.5224,752.734,17.2,-120,0,-0.0214784
7.16,570.089,35.5223,753.045,14.8,-120,0,-0.0155589
7.18,570.243,35.5223,753.2,12.4,-120,0,-0.0136909
7.2,570.398,35.5223,753.355,10,-120,0,-0.0118229
7.22,570.553,35.5222,753.509,7.6,-120,0,-0.00995482
7.24,570.708,35.5222,753.664,5.2,-120,0,-0.00808678
7.26,570.863,35.5222,753.819,2.8,-120,0,-0.00621874
7.28,571.018,35.5222,753.974,0.399999,-120,0,-0.0043507
