"time","x","y","position","velocity","acceleration","jerk","heading"
0,30,147,0,0,0,0,0
0.02,30.0894,147,0.0894142,4.47071,223.535,11176.8,6.23973e-05
0.04,30.1789,147,0.178928,4.47571,0.25,-11164.3,0.000124795
0.06,30.2683,147,0.268342,4.47071,-0.25,-25,0.000187192
0.08,30.3579,147,0.357857,4.47571,0.25,25,0.000249589
0.1,30.4473,147,0.447271,4.47071,-0.25,-25,0.000311986
0.12,30.5368,147,0.536785,4.47571,0.250001,25,0.000374384
0.14,30.6262,147,0.626199,4.47071,-0.250001,-25.0001,0.000436781
0.16,30.7156,147,0.715613,4.47071,-8.57092e-12,12.5,0.000499178
0.18,30.8051,147,0.805127,4.47571,0.250001,12.5,0.000561576
0.2,30.8945,147,0.894542,4.47071,-0.250001,-25.0001,0.000623973
0.22,30.9841,147,0.984056,4.47571,0.25,25,0.00068637
0.24,31.1772,147,1.17724,9.65914,259.172,12946.1,0.00105173
0.26,31.3932,147,1.39324,10.7999,57.0378,-10106.7,0.00148375
0.28,31.6093,147,1.60933,10.8049,0.250006,-2839.39,0.00191578
0.3,31.8253,147,1.82533,10.7999,-0.250006,-25.0006,0.0023478
0.32,32.0538,147,2.05375,11.421,31.0543,1565.22,0.00287554
0.34,32.3354,147,2.33537,14.0807,132.984,5096.46,0.00381508
0.36,32.617,147,2.61698,14.0807,-5.48361e-10,-6649.18,0.00475462
0.38,32.8986,147,2.89859,14.0807,-7.65166e-10,-1.08402e-08,0.00569416
0.4,33.2136,147,3.2136,15.7502,83.478,4173.9,0.0070357
0.42,33.5478,147,3.54775,16.7078,47.881,-1779.85,0.00860823
0.44,33.8819,147,3.88191,16.7078,2.26856e-05,-2394.05,0.0101808
0.46,34.245,147,4.24497,18.1532,72.2701,3613.51,0.0122296
0.48,34.6244,147,4.6244,18.9713,40.9025,-1568.38,0.0145472
0.5,35.0038,147,5.00383,18.9713,-1.34841e-08,-2045.12,0.0168648
0.52,35.4236,147.001,5.42365,20.991,100.985,5049.23,0.0200315
0.54,35.8435,147.001,5.84346,20.9909,-0.00303561,-5049.38,0.0231981
0.56,36.2859,147.001,6.28592,22.1225,56.58,2829.15,0.0269465
0.58,36.7425,147.001,6.74255,22.8317,35.4576,-1056.12,0.0310608
0.6,37.2135,147.001,7.21348,23.5466,35.7481,14.525,0.0356124
0.62,37.7044,147.002,7.70435,24.5436,49.8457,704.884,0.040769
0.64,38.2071,147.002,8.20712,25.1384,29.7402,-1005.28,0.0463535
0.66,38.7299,147.003,8.72995,26.1414,50.153,1020.64,0.0526443
0.68,39.2665,147.003,9.2665,26.8277,34.3163,-791.838,0.0594969
0.7,39.8193,147.004,9.81931,27.6403,40.6278,315.578,0.0670116
0.72,40.3907,147.004,10.3907,28.5698,46.4775,292.483,0.0753721
0.74,40.9722,147.005,10.9722,29.0752,25.2666,-1060.54,0.0841988
0.76,41.5788,147.006,11.5788,30.3298,62.729,1873.12,0.0943108
0.78,42.1946,147.007,12.1946,30.7907,23.045,-1984.2,0.104943
0.8,42.8297,147.008,12.8297,31.7531,48.1238,1253.94,0.116675
0.82,43.482,147.01,13.482,32.6161,43.1507,-248.656,0.129544
0.84,44.1462,147.011,14.1462,33.21,29.694,-672.833,0.143206
0.86,44.8307,147.013,14.8307,34.2258,50.7899,1054.8,0.158251
0.88,45.5316,147.015,15.5316,35.0447,40.9413,-492.432,0.174515
0.9,46.2459,147.017,16.2459,35.7164,33.5864,-367.745,0.191813
0.92,46.9767,147.02,16.9768,36.5415,41.2566,383.512,0.21043
0.94,47.7275,147.023,17.7275,37.5361,49.7269,423.516,0.23077
0.96,48.4926,147.026,18.4926,38.256,35.9951,-686.594,0.252424
0.98,49.2726,147.03,19.2727,39.0023,37.3153,66.0142,0.275496
1,50.068,147.034,20.068,39.7695,38.3628,52.3746,0.30009
1.02,50.874,147.038,20.8741,40.3003,26.5383,-591.228,0.326515
1.04,51.6802,147.043,21.6803,40.3136,0.668082,-1293.51,0.354093
1.06,52.4868,147.048,22.4869,40.3269,0.660826,-0.362795,0.382836
1.08,53.2936,147.053,23.2937,40.3402,0.667061,0.311765,0.412755
1.1,54.1006,147.059,24.1007,40.354,0.689928,1.14336,0.44386
1.12,54.9079,147.066,24.9081,40.3676,0.681291,-0.431852,0.476571
1.14,55.7156,147.074,25.7158,40.3871,0.976052,14.738,0.510562
1.16,56.5236,147.081,26.5239,40.4018,0.731727,-12.2162,0.545843
1.18,57.3318,147.089,27.3321,40.4118,0.50121,-11.5259,0.582407
1.2,58.1404,147.097,28.1407,40.4311,0.96413,23.146,0.62023
1.22,58.9493,147.106,28.9497,40.4459,0.740306,-11.1912,0.659752
1.24,59.7585,147.116,29.759,40.4661,1.01253,13.6111,0.700566
1.26,60.568,147.126,30.5685,40.4759,0.489694,-26.1417,0.742684
1.28,61.3779,147.136,31.3784,40.4959,0.995882,25.3094,0.786117
1.3,62.1879,147.148,32.1886,40.5073,0.57092,-21.2481,0.830876
1.32,62.9984,147.161,32.9991,40.5276,1.01706,22.3068,0.877428
1.34,63.8091,147.173,33.81,40.5431,0.77313,-12.1963,0.925343
1.36,64.6202,147.187,34.6212,40.5603,0.860054,4.34621,0.974631
1.38,65.4316,147.2,35.4327,40.5752,0.746824,-5.66151,1.02531
1.4,66.2432,147.215,36.2444,40.5877,0.626579,-6.01225,1.07738
1.42,67.0554,147.232,37.0567,40.6152,1.37045,37.1937,1.13134
1.44,67.8677,147.248,37.8693,40.6265,0.566871,-40.1791,1.18674
1.46,68.6805,147.265,38.6822,40.6445,0.902413,16.7771,1.24364
1.48,69.4935,147.282,39.4954,40.662,0.873522,-1.44455,1.30208
1.5,70.3069,147.302,40.309,40.6815,0.974703,5.05905,1.36204
1.52,71.1208,147.321,41.1231,40.7043,1.14013,8.2716,1.42401
1.54,71.9349,147.342,41.9375,40.7189,0.731591,-20.4272,1.48749
1.56,72.7493,147.364,42.7522,40.7363,0.867876,6.81425,1.5525
1.58,73.5641,147.386,43.5673,40.7552,0.946399,3.92613,1.61906
1.6,74.3793,147.41,44.3828,40.7742,0.949521,0.156109,1.68717
1.62,75.1948,147.434,45.1987,40.7947,1.02608,3.82784,1.7574
1.64,76.0107,147.46,46.015,40.8144,0.984136,-2.09709,1.82923
1.66,76.8269,147.486,46.8317,40.8344,0.998602,0.723328,1.90268
1.68,77.6436,147.514,47.6488,40.8547,1.01307,0.723306,1.97777
1.7,78.4605,147.543,48.4662,40.8718,0.855381,-7.8844,2.0545
1.72,79.2778,147.573,49.2841,40.8922,1.02079,8.27028,2.13347
1.74,80.0955,147.604,50.1024,40.9182,1.30064,13.9926,2.21413
1.76,80.9135,147.636,50.921,40.9315,0.664087,-31.8275,2.2965
1.78,81.732,147.669,51.7402,40.9562,1.23678,28.6346,2.38061
1.8,82.5508,147.704,52.5597,40.9752,0.949125,-14.3827,2.46647
1.82,83.37,147.74,53.3797,41.0007,1.27613,16.3501,2.55483
1.84,84.1896,147.777,54.2002,41.0238,1.15464,-6.0742,2.64503
1.86,85.0096,147.816,55.0211,41.0443,1.02522,-6.47123,2.73707
1.88,85.8299,147.856,55.8423,41.0625,0.908647,-5.82856,2.83094
1.9,86.6506,147.897,56.664,41.0862,1.18416,13.7759,2.92668
1.92,87.4718,147.939,57.4864,41.1172,1.5503,18.3068,3.02493
1.94,88.2933,147.983,58.3091,41.1342,0.852285,-34.9007,3.1251
1.96,89.1152,148.03,59.1323,41.1617,1.37541,26.156,3.22721
1.98,89.9375,148.076,59.9559,41.179,0.862164,-25.6621,3.33128
2,90.7601,148.125,60.78,41.2052,1.30948,22.3656,3.43733
2.02,91.5833,148.175,61.6046,41.2306,1.27063,-1.94208,3.54606
2.04,92.4067,148.227,62.4297,41.2581,1.37737,5.33697,3.65684
2.06,93.2306,148.28,63.2553,41.2766,0.924673,-22.635,3.76969
2.08,94.0548,148.336,64.0814,41.3052,1.42827,25.1798,3.88463
2.1,94.8795,148.393,64.908,41.3326,1.37285,-2.77103,4.00169
2.12,95.7046,148.451,65.7351,41.3537,1.05318,-15.9833,4.12162
2.14,96.5301,148.512,66.5629,41.3893,1.78132,36.4069,4.24374
2.16,97.356,148.574,67.3912,41.4132,1.19589,-29.2715,4.36808
2.18,98.1823,148.638,68.2199,41.4363,1.15329,-2.13007,4.49466
2.2,99.0088,148.703,69.049,41.4559,0.978781,-8.7254,4.6235
2.22,99.836,148.772,69.8791,41.503,2.35743,68.9324,4.75543
2.24,100.664,148.841,70.7095,41.5201,0.855809,-75.081,4.88982
2.26,101.491,148.913,71.5401,41.5312,0.552366,-15.1722,5.02663
2.28,102.32,148.987,72.3718,41.5874,2.81211,112.987,5.16587
2.3,103.149,149.063,73.2043,41.624,1.82823,-49.1936,5.30754
2.32,103.977,149.141,74.0367,41.6211,-0.143529,-98.5882,5.45253
2.34,104.808,149.221,74.8709,41.709,4.39305,226.829,5.60004
2.36,105.637,149.303,75.7049,41.6981,-0.543,-246.802,5.75012
2.38,106.468,149.388,76.5396,41.7376,1.97479,125.89,5.9028
2.4,107.298,149.476,77.3743,41.7331,-0.22688,-110.084,6.0581
2.42,108.13,149.564,78.2109,41.8287,4.78078,250.383,6.21698
2.44,108.961,149.656,79.0474,41.8262,-0.12604,-245.341,6.37859
2.46,109.793,149.751,79.8848,41.8687,2.12751,112.677,6.54297
2.48,110.625,149.847,80.722,41.8622,-0.326548,-122.703,6.71015
2.5,111.458,149.947,81.5612,41.9617,4.97605,265.13,6.88018
2.52,112.291,150.048,82.4006,41.9679,0.307363,-233.434,7.05407
2.54,113.125,150.152,83.2409,42.0137,2.29147,99.2052,7.23092
2.56,113.959,150.26,84.0812,42.017,0.163904,-106.378,7.41077
2.58,114.793,150.37,84.9226,42.0708,2.68933,126.271,7.59365
2.6,115.628,150.483,85.765,42.1191,2.41522,-13.7053,7.77962
2.62,116.463,150.598,86.6086,42.1801,3.05139,31.8084,7.96978
2.64,117.299,150.716,87.4524,42.1877,0.380521,-133.544,8.16315
2.66,118.134,150.837,88.2963,42.1964,0.433421,2.64497,8.35977
2.68,118.971,150.962,89.1424,42.3051,5.43736,250.197,8.55969
2.7,119.808,151.09,89.9887,42.3161,0.547879,-244.474,8.76296
2.72,120.644,151.22,90.8354,42.3335,0.872806,16.2463,8.97078
2.74,121.481,151.354,91.6833,42.3965,3.14719,113.719,9.18209
2.76,122.32,151.49,92.5325,42.4605,3.20298,2.78936,9.39694
2.78,123.157,151.631,93.3821,42.4791,0.929081,-113.695,9.61562
2.8,123.995,151.774,94.2322,42.5042,1.25454,16.2727,9.83865
2.82,124.834,151.922,95.084,42.5909,4.33344,153.945,10.0663
2.84,125.673,152.072,95.9359,42.5915,0.0304077,-215.151,10.2968
2.86,126.512,152.227,96.7893,42.6749,4.17012,206.985,10.5315
2.88,127.351,152.384,97.6432,42.6916,0.836883,-166.662,10.7704
2.9,128.191,152.545,98.4985,42.7652,3.6777,142.041,11.0125
2.92,129.032,152.711,99.355,42.8258,3.03153,-32.3083,11.2609
2.94,129.872,152.881,100.212,42.8458,1.0009,-101.531,11.5128
2.96,130.713,153.053,101.07,42.9257,3.99099,149.504,11.7691
2.98,131.553,153.23,101.93,42.9674,2.08505,-95.297,12.0298
3,132.394,153.412,102.79,43.0044,1.85442,-11.5314,12.2944
3.02,133.235,153.597,103.651,43.0579,2.67298,40.9279,12.5652
3.04,134.076,153.787,104.513,43.1048,2.34508,-16.3946,12.8406
3.06,134.918,153.98,105.377,43.1869,4.10321,87.9061,13.1203
3.08,135.76,154.179,106.242,43.2471,3.00913,-54.7036,13.4046
3.1,136.601,154.382,107.107,43.2447,-0.117847,-156.349,13.6942
3.12,137.443,154.589,107.974,43.351,5.31309,271.547,13.989
3.14,138.285,154.801,108.842,43.4321,4.05678,-62.8153,14.2899
3.16,139.127,155.018,109.712,43.4694,1.86739,-109.47,14.5951
3.18,139.968,155.239,110.582,43.4878,0.919794,-47.3796,14.9049
3.2,140.81,155.466,111.454,43.621,6.65915,286.968,15.2219
3.22,141.651,155.697,112.326,43.6167,-0.214544,-343.685,15.5424
3.24,142.493,155.934,113.201,43.7174,5.03199,262.327,15.8713
3.26,143.335,156.175,114.076,43.7818,3.2217,-90.5146,16.2041
3.28,144.176,156.423,114.953,43.8535,3.58595,18.2124,16.5413
3.3,145.018,156.676,115.832,43.9258,3.61554,1.47936,16.8883
3.32,145.858,156.934,116.711,43.9711,2.26158,-67.6978,17.2371
3.34,146.699,157.197,117.592,44.0483,3.8596,79.9008,17.5959
3.36,147.54,157.466,118.475,44.1317,4.17034,15.537,17.9596
3.38,148.379,157.741,119.358,44.1623,1.53433,-131.8,18.3276
3.4,149.219,158.023,120.244,44.2944,6.60446,253.506,18.7045
3.42,150.058,158.31,121.131,44.34,2.27684,-216.381,19.0867
3.44,150.896,158.603,122.019,44.41,3.50167,61.2417,19.4762
3.46,151.734,158.903,122.909,44.4885,3.92398,21.1152,19.8721
3.48,152.572,159.208,123.8,44.5753,4.33816,20.7091,20.2738
3.5,153.407,159.521,124.692,44.6042,1.4478,-144.518,20.6813
3.52,154.244,159.84,125.588,44.7671,8.14422,334.821,21.0995
3.54,155.078,160.165,126.483,44.7771,0.500592,-382.181,21.5214
3.56,155.912,160.498,127.381,44.87,4.64393,207.167,21.9516
3.58,156.745,160.837,128.28,44.9778,5.39315,37.4613,22.3896
3.6,157.575,161.182,129.179,44.9616,-0.81437,-310.376,22.83
3.62,158.406,161.537,130.083,45.1777,10.8084,581.14,23.2856
3.64,159.236,161.897,130.987,45.2245,2.3368,-423.582,23.7447
3.66,160.063,162.265,131.893,45.2873,3.14109,40.2143,24.2108
3.68,160.889,162.641,132.801,45.3654,3.90535,38.2133,24.685
3.7,161.714,163.024,133.71,45.4712,5.29213,69.3388,25.1655
3.72,162.537,163.414,134.621,45.5559,4.23423,-52.895,25.6542
3.74,163.358,163.814,135.534,45.6339,3.89896,-16.7638,26.1523
3.76,164.177,164.22,136.448,45.7133,3.97001,3.55296,26.6556
3.78,164.993,164.634,137.363,45.7617,2.42144,-77.4288,27.1651
3.8,165.808,165.058,138.282,45.9312,8.47217,302.537,27.6872
3.82,166.621,165.489,139.202,45.9855,2.71511,-287.853,28.2135
3.84,167.431,165.927,140.123,46.0565,3.55007,41.748,28.7491
3.86,168.238,166.375,141.046,46.1782,6.08864,126.928,29.2922
3.88,169.043,166.832,141.971,46.2454,3.35594,-136.635,29.8415
3.9,169.844,167.296,142.897,46.288,2.13415,-61.0893,30.3967
3.92,170.643,167.77,143.826,46.44,7.59744,273.164,30.9649
3.94,171.438,168.252,144.755,46.4871,2.35515,-262.114,31.5365
3.96,172.228,168.743,145.687,46.5525,3.27042,45.7637,32.1165
3.98,173.017,169.244,146.621,46.7092,7.83426,228.192,32.7051
4,173.801,169.753,147.555,46.739,1.49057,-317.185,33.2982
4.02,174.581,170.271,148.492,46.8013,3.11717,81.3302,33.9007
4.04,175.357,170.799,149.43,46.9446,7.16131,202.207,34.5108
4.06,176.129,171.335,150.37,46.9913,2.33849,-241.141,35.1257
4.08,176.895,171.88,151.31,46.9844,-0.349508,-134.4,35.7464
4.1,177.657,172.435,152.253,47.1725,9.40683,487.817,36.3774
4.12,178.415,172.999,153.198,47.2275,2.74828,-332.928,37.0127
4.14,179.167,173.573,154.143,47.2734,2.29547,-22.6401,37.6546
4.16,179.913,174.156,155.09,47.3497,3.81615,76.0339,38.3026
4.18,180.653,174.748,156.038,47.3963,2.33152,-74.2317,38.9556
4.2,181.389,175.349,156.988,47.4873,4.54894,110.871,39.6116
4.22,182.118,175.959,157.939,47.5336,2.31659,-111.618,40.2786
4.24,182.84,176.579,158.891,47.5906,2.8495,26.6457,40.948
4.26,183.556,177.208,159.843,47.639,2.41736,-21.6072,41.6214
4.28,184.265,177.846,160.797,47.6994,3.02326,30.2951,42.2994
4.3,184.968,178.493,161.753,47.7618,3.11847,4.76077,42.9817
4.32,185.663,179.147,162.707,47.7429,-0.944503,-203.149,43.6669
4.34,186.351,179.812,163.664,47.8214,3.92532,243.491,44.357
4.36,187.031,180.486,164.621,47.8835,3.10202,-41.1649,45.0499
4.38,187.704,181.168,165.58,47.9032,0.986139,-105.794,45.7445
4.4,188.368,181.858,166.537,47.8685,-1.7322,-135.917,46.4417
4.42,189.024,182.557,167.496,47.945,3.82112,277.666,47.1415
4.44,189.673,183.264,168.455,47.9747,1.48563,-116.774,47.8423
4.46,190.312,183.978,169.414,47.941,-1.68222,-158.393,48.5442
4.48,190.943,184.702,170.374,47.9841,2.15544,191.883,49.2472
4.5,191.564,185.432,171.333,47.9504,-1.68785,-192.164,49.9502
4.52,192.177,186.171,172.293,47.9967,2.31409,200.097,50.6535
4.54,192.782,186.916,173.252,47.9577,-1.94807,-213.108,51.3559
4.56,193.376,187.669,174.211,47.9753,0.877526,141.28,52.0578
4.58,193.961,188.429,175.17,47.9523,-1.14932,-101.342,52.7585
4.6,194.536,189.196,176.129,47.9276,-1.23399,-4.23329,53.4573
4.62,195.102,189.969,177.087,47.9046,-1.14842,4.27819,54.1538
4.64,195.658,190.748,178.045,47.8796,-1.25005,-5.08152,54.8483
4.66,196.204,191.534,179.001,47.8295,-2.50429,-62.7119,55.5396
4.68,196.74,192.325,179.957,47.8014,-1.40872,54.7785,56.2277
4.7,197.267,193.123,180.913,47.8078,0.322509,86.5616,56.914
4.72,197.782,193.926,181.867,47.6924,-5.77049,-304.65,57.5933
4.74,198.289,194.734,182.821,47.6786,-0.690405,254.004,58.2693
4.76,198.785,195.546,183.773,47.595,-4.18109,-174.534,58.9415
4.78,199.272,196.364,184.725,47.592,-0.146725,201.718,59.609
4.8,199.747,197.187,185.675,47.5065,-4.27446,-206.387,60.27
4.82,200.213,198.014,186.624,47.4649,-2.08446,109.5,60.9273
4.84,200.669,198.844,187.571,47.3509,-5.69552,-180.553,61.5763
4.86,201.114,199.679,188.517,47.2944,-2.82919,143.317,62.2198
4.88,201.549,200.518,189.462,47.2528,-2.07766,37.5762,62.8584
4.9,201.975,201.36,190.406,47.1802,-3.62831,-77.5322,63.491
4.92,202.391,202.203,191.346,47.0179,-8.11735,-224.452,64.1132
4.94,202.797,203.052,192.287,47.0535,1.78216,494.975,64.7322
4.96,203.193,203.902,193.225,46.8961,-7.86997,-482.606,65.3423
4.98,203.579,204.756,194.162,46.831,-3.25573,230.712,65.9435
5,203.956,205.612,195.097,46.7676,-3.17349,4.11235,66.5414
5.02,204.323,206.47,196.03,46.6722,-4.76941,-79.7962,67.127
5.04,204.68,207.33,196.962,46.5778,-4.71766,2.58774,67.7058
5.06,205.029,208.192,197.891,46.466,-5.58803,-43.5188,68.2783
5.08,205.368,209.056,198.82,46.4165,-2.47968,155.418,68.8431
5.1,205.698,209.921,199.745,46.2678,-7.43439,-247.735,69.3977
5.12,206.019,210.789,200.671,46.2831,0.764962,409.967,69.948
5.14,206.331,211.655,201.592,46.0557,-11.3702,-606.76,70.4847
5.16,206.635,212.525,202.513,46.05,-0.283897,554.317,71.0146
5.18,206.929,213.394,203.431,45.9037,-7.31276,-351.443,71.5389
5.2,207.215,214.265,204.347,45.8263,-3.87102,172.087,72.0522
5.22,207.493,215.137,205.263,45.7682,-2.90531,48.2856,72.5573
5.24,207.764,216.009,206.175,45.6352,-6.65101,-187.285,73.0544
5.26,208.024,216.881,207.086,45.5156,-5.97907,33.5972,73.5428
5.28,208.279,217.754,207.995,45.4522,-3.16924,140.491,74.0234
5.3,208.525,218.628,208.903,45.3906,-3.08015,4.45457,74.4986
5.32,208.763,219.5,209.807,45.22,-8.53025,-272.505,74.9585
5.34,208.994,220.373,210.71,45.1694,-2.52988,300.018,75.4154
5.36,209.217,221.247,211.612,45.0634,-5.29918,-138.465,75.8622
5.38,209.434,222.12,212.511,44.987,-3.82081,73.9187,76.2991
5.4,209.643,222.994,213.41,44.93,-2.84952,48.5642,76.734
5.42,209.846,223.865,214.304,44.7251,-10.2475,-369.898,77.1516
5.44,210.041,224.738,215.199,44.7207,-0.221007,501.324,77.5661
5.46,210.23,225.61,216.091,44.6074,-5.66081,-271.99,77.972
5.48,210.412,226.481,216.981,44.5045,-5.14782,25.6496,78.3691
5.5,210.589,227.352,217.87,44.4497,-2.741,120.341,78.7615
5.52,210.758,228.222,218.756,44.2961,-7.67731,-246.815,79.1412
5.54,210.922,229.091,219.641,44.2324,-3.18677,224.527,79.5151
5.56,211.08,229.96,220.524,44.1533,-3.95636,-38.4797,79.8817
5.58,211.232,230.828,221.405,44.0712,-4.10202,-7.28297,80.2406
5.6,211.378,231.696,222.285,44.001,-3.51032,29.5852,80.5927
5.62,211.519,232.563,223.163,43.9052,-4.79052,-64.0104,80.9356
5.64,211.654,233.428,224.039,43.7875,-5.88596,-54.7716,81.2709
5.66,211.785,234.293,224.914,43.7263,-3.05823,141.386,81.5998
5.68,211.91,235.157,225.787,43.6705,-2.78964,13.4293,81.922
5.7,212.03,236.021,226.659,43.5941,-3.81949,-51.4925,82.2362
5.72,212.145,236.882,227.528,43.4382,-7.79799,-198.925,82.5434
5.74,212.255,237.743,228.396,43.4119,-1.31117,324.341,82.8424
5.76,212.361,238.603,229.262,43.3252,-4.33588,-151.236,83.1354
5.78,212.461,239.463,230.128,43.286,-1.95929,118.83,83.4232
5.8,212.559,240.321,230.991,43.1489,-6.85845,-244.958,83.7048
5.82,212.651,241.178,231.853,43.1117,-1.85957,249.944,83.9763
5.84,212.739,242.034,232.714,43.0204,-4.56628,-135.335,84.2416
5.86,212.823,242.888,233.572,42.93,-4.51683,2.47211,84.5007
5.88,212.904,243.741,234.429,42.8442,-4.29102,11.2908,84.7535
5.9,212.981,244.594,235.285,42.8121,-1.60315,134.393,85.0003
5.92,213.053,245.445,236.14,42.7039,-5.41274,-190.479,85.2391
5.94,213.121,246.296,236.993,42.668,-1.79346,180.964,85.4718
5.96,213.187,247.144,237.844,42.5445,-6.17588,-219.121,85.6987
5.98,213.249,247.992,238.694,42.5124,-1.60394,228.597,85.9197
6,213.308,248.839,239.543,42.4384,-3.70291,-104.948,86.1348
6.02,213.364,249.684,240.39,42.3386,-4.98609,-64.1591,86.3423
6.04,213.416,250.528,241.236,42.3175,-1.05699,196.455,86.5441
6.06,213.466,251.372,242.081,42.2449,-3.63091,-128.696,86.7403
6.08,213.512,252.213,242.923,42.1218,-6.15584,-126.247,86.9308
6.1,213.556,253.054,243.765,42.1013,-1.02195,256.694,87.1158
6.12,213.596,253.893,244.606,42.0124,-4.44749,-171.277,87.2934
6.14,213.635,254.731,245.444,41.9452,-3.35731,54.5087,87.4655
6.16,213.671,255.569,246.283,41.9273,-0.898198,122.956,87.6322
6.18,213.704,256.404,247.119,41.8119,-5.76712,-243.446,87.7935
6.2,213.736,257.24,247.955,41.7967,-0.758659,250.423,87.9494
6.22,213.764,258.073,248.788,41.6609,-6.79295,-301.715,88.0982
6.24,213.79,258.897,249.613,41.2318,-21.4544,-733.073,88.2403
6.26,213.814,259.707,250.424,40.5473,-34.2227,-638.413,88.3752
6.28,213.836,260.501,251.218,39.7109,-41.8246,-380.098,88.5027
6.3,213.855,261.276,251.993,38.7621,-47.4387,-280.706,88.6217
6.32,213.873,262.03,252.748,37.7158,-52.3157,-243.849,88.7324
6.34,213.888,262.77,253.488,36.9956,-36.0061,815.481,88.8371
6.36,213.903,263.496,254.213,36.2812,-35.7208,14.2653,88.9362
6.38,213.915,264.197,254.915,35.082,-59.9624,-1212.08,89.0267
