"time","x","y","position","velocity","acceleration","jerk","heading"
0,30,160,0,0,37,0,0
0.02,30.0086,160,0.00860233,0.74,37,0,2.98521e-06
0.04,30.0296,160,0.0296355,1.48,37,0,1.02842e-05
0.06,30.0667,160,0.0666854,2.22,37,0,2.31414e-05
0.08,30.1184,160,0.118429,2.96,37,0,4.10976e-05
0.1,30.185,160,0.185034,3.7,37,0,6.42111e-05
0.12,30.2664,160,0.266422,4.44,37,0,9.24547e-05
0.14,30.3626,160,0.362613,5.18,37,0,0.000125835
0.16,30.4736,160,0.473612,5.92,37,0,0.000164355
0.18,30.5994,160,0.599402,6.66,37,0,0.000248019
0.2,30.74,160,0.74,7.4,37,0,0.000395397
0.22,30.8954,160,0.895407,8.14,37,0,0.000558297
0.24,31.0656,160,1.06561,8.88,37,0,0.000736703
0.26,31.2506,160,1.2506,9.62,37,0,0.00104873
0.28,31.4504,160,1.4504,10.36,37,0,0.00140039
0.3,31.665,160,1.665,11.1,37,0,0.00180554
0.32,31.8944,160,1.8944,11.84,37,0,0.00237502
0.34,32.1386,160,2.1386,12.58,37,0,0.00298123
0.36,32.3976,160,2.3976,13.32,37,0,0.00379144
0.38,32.6714,160,2.6714,14.06,37,0,0.00467179
0.4,32.96,160,2.96,14.8,37,0,0.00578424
0.42,33.2634,160,3.2634,15.54,37,0,0.00699228
0.44,33.5816,160,3.5816,16.28,37,0,0.00849163
0.46,33.9146,160,3.9146,17.02,37,0,0.0101509
0.48,34.2624,160,4.2624,17.76,37,0,0.0120554
0.5,34.625,160,4.625,18.5,37,0,0.0142622
0.52,35.0024,160,5.0024,19.24,37,0,0.0167157
0.54,35.3946,160.001,5.3946,19.98,37,0,0.0194741
0.56,35.8016,160.001,5.8016,20.72,37,0,0.0226365
0.58,36.2234,160.001,6.2234,21.46,37,0,0.0261446
0.6,36.66,160.001,6.66,22.2,37,0,0.0300357
0.62,37.1114,160.001,7.1114,22.94,37,0,0.0343482
0.64,37.5776,160.002,7.5776,23.68,37,0,0.0391343
0.66,38.0586,160.002,8.0586,24.42,37,0,0.0444597
0.68,38.5544,160.002,8.5544,25.16,37,0,0.0503148
0.7,39.065,160.003,9.065,25.9,37,0,0.0567409
0.72,39.5904,160.003,9.5904,26.64,37,0,0.0637799
0.74,40.1306,160.004,10.1306,27.38,37,0,0.0714747
0.76,40.6856,160.005,10.6856,28.12,37,0,0.0798687
0.78,41.2554,160.006,11.2554,28.86,37,0,0.0890065
0.8,41.84,160.007,11.84,29.6,37,0,0.098933
0.82,42.4394,160.008,12.4394,30.34,37,0,0.109694
0.84,43.0536,160.009,13.0536,31.08,37,0,0.121369
0.86,43.6826,160.01,13.6826,31.82,37,0,0.134021
0.88,44.3264,160.012,14.3264,32.56,37,0,0.147666
0.9,44.985,160.014,14.985,33.3,37,0,0.162352
0.92,45.6584,160.016,15.6584,34.04,37,0,0.17813
0.94,46.3466,160.018,16.3466,34.78,37,0,0.195121
0.96,47.0496,160.02,17.0496,35.52,37,0,0.213394
0.98,47.7674,160.023,17.7674,36.26,37,0,0.232931
1,48.5,160.026,18.5,37,0,0,0.253839
1.02,49.24,160.03,19.24,37,0,0,0.276046
1.04,49.9799,160.034,19.98,37,0,0,0.299213
1.06,50.7199,160.038,20.72,37,0,0,0.323457
1.08,51.4599,160.042,21.46,37,0,0,0.348781
1.1,52.1999,160.047,22.2,37,0,0,0.375097
1.12,52.9399,160.052,22.94,37,0,0,0.402579
1.14,53.6799,160.057,23.68,37,0,0,0.431124
1.16,54.4199,160.063,24.42,37,0,0,0.460697
1.18,55.1598,160.069,25.16,37,0,0,0.491519
1.2,55.8998,160.075,25.9,37,0,0,0.523387
1.22,56.6398,160.082,26.64,37,0,0,0.556373
1.24,57.3797,160.09,27.38,37,0,0,0.59059
1.26,58.1197,160.098,28.12,37,0,0,0.625885
1.28,58.8596,160.106,28.86,37,0,0,0.66239
1.3,59.5996,160.115,29.6,37,0,0,0.700105
1.32,60.3395,160.124,30.34,37,0,0,0.738932
1.34,61.0795,160.134,31.08,37,0,0,0.779066
1.36,61.8194,160.144,31.82,37,0,0,0.820385
1.38,62.5593,160.155,32.56,37,0,0,0.86286
1.4,63.2992,160.166,33.3,37,0,0,0.906723
1.42,64.0391,160.178,34.04,37,0,0,0.951754
1.44,64.779,160.191,34.78,37,0,0,0.998041
1.46,65.5189,160.204,35.52,37,0,0,1.04569
1.48,66.2588,160.218,36.26,37,0,0,1.09454
1.5,66.9986,160.233,37,37,0,0,1.14476
1.52,67.7385,160.248,37.74,37,0,0,1.19631
1.54,68.4783,160.263,38.48,37,0,0,1.2491
1.56,69.2181,160.28,39.22,37,0,0,1.30336
1.58,69.9579,160.297,39.96,37,0,0,1.35893
1.6,70.6977,160.315,40.7,37,0,0,1.4158
1.62,71.4375,160.334,41.44,37,0,0,1.4742
1.64,72.1772,160.353,42.18,37,0,0,1.5339
1.66,72.9169,160.373,42.92,37,0,0,1.59504
1.68,73.6566,160.394,43.66,37,0,0,1.65766
1.7,74.3963,160.416,44.4,37,0,0,1.72162
1.72,75.136,160.439,45.14,37,0,0,1.78715
1.74,75.8756,160.462,45.88,37,0,0,1.85412
1.76,76.6152,160.487,46.62,37,0,0,1.92249
1.78,77.3548,160.512,47.36,37,0,0,1.99253
1.8,78.0943,160.538,48.1,37,0,0,2.06398
1.82,78.8338,160.565,48.84,37,0,0,2.13698
1.84,79.5733,160.593,49.58,37,0,0,2.2116
1.86,80.3127,160.622,50.32,37,0,0,2.28768
1.88,81.0521,160.652,51.06,37,0,0,2.36546
1.9,81.7914,160.683,51.8,37,0,0,2.44482
1.92,82.5307,160.716,52.54,37,0,0,2.5257
1.94,83.27,160.749,53.28,37,0,0,2.6084
1.96,84.0092,160.783,54.02,37,0,0,2.69263
1.98,84.7484,160.818,54.76,37,0,0,2.77857
2,85.4875,160.855,55.5,37,0,0,2.86626
2.02,86.2265,160.892,56.24,37,0,0,2.95553
2.04,86.9655,160.931,56.98,37,0,0,3.04671
2.06,87.7044,160.971,57.72,37,0,0,3.13956
2.08,88.4433,161.012,58.46,37,0,0,3.23415
2.1,89.1821,161.054,59.2,37,0,0,3.33066
2.12,89.9208,161.098,59.94,37,0,0,3.42885
2.14,90.6594,161.143,60.68,37,0,0,3.529
2.16,91.398,161.189,61.42,37,0,0,3.63098
2.18,92.1364,161.237,62.16,37,0,0,3.73475
2.2,92.8748,161.286,62.9,37,0,0,3.84062
2.22,93.6131,161.336,63.64,37,0,0,3.94826
2.24,94.3513,161.387,64.38,37,0,0,4.05795
2.26,95.0894,161.441,65.12,37,0,0,4.16962
2.28,95.8274,161.495,65.86,37,0,0,4.28318
2.3,96.5653,161.551,66.6,37,0,0,4.39898
2.32,97.303,161.609,67.34,37,0,0,4.51667
2.34,98.0407,161.668,68.08,37,0,0,4.63655
2.36,98.7782,161.728,68.82,37,0,0,4.75853
2.38,99.5156,161.79,69.56,37,0,0,4.88255
2.4,100.253,161.854,70.3,37,0,0,5.00893
2.42,100.99,161.92,71.04,37,0,0,5.13732
2.44,101.727,161.987,71.78,37,0,0,5.2681
2.46,102.464,162.056,72.52,37,0,0,5.40107
2.48,103.2,162.126,73.26,37,0,0,5.5363
2.5,103.937,162.198,74,37,0,0,5.67397
2.52,104.673,162.272,74.74,37,0,0,5.81379
2.54,105.409,162.348,75.48,37,0,0,5.95627
2.56,106.145,162.426,76.22,37,0,0,6.10098
2.58,106.881,162.506,76.96,37,0,0,6.24824
2.6,107.616,162.587,77.7,37,0,0,6.39799
2.62,108.352,162.67,78.44,37,0,0,6.55018
2.64,109.087,162.756,79.18,37,0,0,6.7051
2.66,109.821,162.843,79.92,37,0,0,6.86238
2.68,110.556,162.933,80.66,37,0,0,7.02261
2.7,111.29,163.024,81.4,37,0,0,7.18529
2.72,112.024,163.118,82.14,37,0,0,7.35084
2.74,112.758,163.214,82.88,37,0,0,7.51907
2.76,113.492,163.312,83.62,37,0,0,7.6901
2.78,114.225,163.412,84.36,37,0,0,7.86406
2.8,114.958,163.514,85.1,37,0,0,8.04075
2.82,115.69,163.619,85.84,37,0,0,8.2206
2.84,116.422,163.726,86.58,37,0,0,8.40314
2.86,117.154,163.835,87.32,37,0,0,8.58905
2.88,117.886,163.947,88.06,37,0,0,8.77773
2.9,118.617,164.061,88.8,37,0,0,8.96979
2.92,119.348,164.177,89.54,37,0,0,9.1648
2.94,120.078,164.297,90.28,37,0,0,9.3632
2.96,120.808,164.418,91.02,37,0,0,9.56475
2.98,121.538,164.543,91.76,37,0,0,9.7697
3,122.267,164.669,92.5,37,0,0,9.97797
3.02,122.995,164.799,93.24,37,0,0,10.1903
3.04,123.723,164.931,93.98,37,0,0,10.4055
3.06,124.451,165.066,94.72,37,0,0,10.6238
3.08,125.178,165.204,95.46,37,0,0,10.8462
3.1,125.904,165.345,96.2,37,0,0,11.0726
3.12,126.63,165.488,96.94,37,0,0,11.3022
3.14,127.356,165.635,97.68,37,0,0,11.5352
3.16,128.08,165.784,98.42,37,0,0,11.7726
3.18,128.805,165.937,99.16,37,0,0,12.0142
3.2,129.528,166.092,99.9,37,0,0,12.2593
3.22,130.251,166.251,100.64,37,0,0,12.508
3.24,130.973,166.413,101.38,37,0,0,12.7612
3.26,131.694,166.578,102.12,37,0,0,13.019
3.28,132.415,166.746,102.86,37,0,0,13.2806
3.3,133.135,166.918,103.6,37,0,0,13.5461
3.32,133.854,167.093,104.34,37,0,0,13.8159
3.34,134.572,167.271,105.08,37,0,0,14.0911
3.36,135.289,167.453,105.82,37,0,0,14.3703
3.38,136.006,167.639,106.56,37,0,0,14.6537
3.4,136.721,167.828,107.3,37,0,0,14.9413
3.42,137.435,168.02,108.04,37,0,0,15.2347
3.44,138.149,168.217,108.78,37,0,0,15.5327
3.46,138.861,168.417,109.52,37,0,0,15.8352
3.48,139.573,168.62,110.26,37,0,0,16.1422
3.5,140.283,168.828,111,37,0,0,16.4543
3.52,140.992,169.04,111.74,37,0,0,16.7723
3.54,141.7,169.255,112.48,37,0,0,17.0951
3.56,142.407,169.475,113.22,37,0,0,17.4226
3.58,143.112,169.698,113.96,37,0,0,17.7551
3.6,143.816,169.926,114.7,37,0,0,18.0935
3.62,144.519,170.158,115.44,37,0,0,18.4378
3.64,145.22,170.394,116.18,37,0,0,18.7871
3.66,145.92,170.635,116.92,37,0,0,19.1417
3.68,146.618,170.879,117.66,37,0,0,19.5016
3.7,147.315,171.129,118.4,37,0,0,19.8677
3.72,148.01,171.382,119.14,37,0,0,20.2401
3.74,148.704,171.641,119.88,37,0,0,20.618
3.76,149.396,171.904,120.62,37,0,0,21.0015
3.78,150.085,172.171,121.36,37,0,0,21.3906
3.8,150.774,172.443,122.1,37,0,0,21.7858
3.82,151.46,172.72,122.84,37,0,0,22.1881
3.84,152.144,173.002,123.58,37,0,0,22.5962
3.86,152.826,173.289,124.32,37,0,0,23.0102
3.88,153.506,173.581,125.06,37,0,0,23.4303
3.9,154.184,173.878,125.8,37,0,0,23.8563
3.92,154.86,174.179,126.54,37,0,0,24.2892
3.94,155.533,174.486,127.28,37,0,0,24.729
3.96,156.204,174.799,128.02,37,0,0,25.175
3.98,156.872,175.116,128.76,37,0,0,25.6272
4,157.538,175.439,129.5,37,0,0,26.0857
4.02,158.202,175.767,130.24,37,0,0,26.5505
4.04,158.862,176.1,130.98,37,0,0,27.0219
4.06,159.52,176.439,131.72,37,0,0,27.5007
4.08,160.175,176.784,132.46,37,0,0,27.9859
4.1,160.827,177.134,133.2,37,0,0,28.4774
4.12,161.476,177.489,133.94,37,0,0,28.9753
4.14,162.122,177.851,134.68,37,0,0,29.4796
4.16,162.764,178.218,135.42,37,0,0,29.9902
4.18,163.404,178.59,136.16,37,0,0,30.5076
4.2,164.039,178.969,136.9,37,0,0,31.032
4.22,164.672,179.353,137.64,37,0,0,31.5627
4.24,165.3,179.744,138.38,37,0,0,32.0995
4.26,165.925,180.14,139.12,37,0,0,32.6426
4.28,166.547,180.542,139.86,37,0,0,33.1917
4.3,167.164,180.95,140.6,37,0,0,33.7468
4.32,167.777,181.364,141.34,37,0,0,34.3078
4.34,168.386,181.784,142.08,37,0,0,34.8753
4.36,168.991,182.21,142.82,37,0,0,35.4489
4.38,169.592,182.643,143.56,37,0,0,36.0279
4.4,170.188,183.081,144.3,37,0,0,36.6125
4.42,170.78,183.525,145.04,37,0,0,37.2023
4.44,171.367,183.976,145.78,37,0,0,37.7973
4.46,171.949,184.432,146.52,37,0,0,38.3973
4.48,172.527,184.895,147.26,37,0,0,39.0021
4.5,173.1,185.364,148,37,0,0,39.6116
4.52,173.667,185.838,148.74,37,0,0,40.2262
4.54,174.23,186.319,149.48,37,0,0,40.8449
4.56,174.787,186.806,150.22,37,0,0,41.4676
4.58,175.339,187.299,150.96,37,0,0,42.094
4.6,175.885,187.799,151.7,37,0,0,42.724
4.62,176.426,188.304,152.44,37,0,0,43.3572
4.64,176.961,188.815,153.18,37,0,0,43.9934
4.66,177.49,189.332,153.92,37,0,0,44.6324
4.68,178.014,189.854,154.66,37,0,0,45.2739
4.7,178.532,190.383,155.4,37,0,0,45.9177
4.72,179.044,190.917,156.14,37,0,0,46.5635
4.74,179.549,191.458,156.88,37,0,0,47.2108
4.76,180.049,192.004,157.62,37,0,0,47.8594
4.78,180.542,192.555,158.36,37,0,0,48.5089
4.8,181.03,193.112,159.1,37,0,0,49.1591
4.82,181.51,193.675,159.84,37,0,0,49.8096
4.84,181.985,194.243,160.58,37,0,0,50.4602
4.86,182.452,194.816,161.32,37,0,0,51.1105
4.88,182.914,195.395,162.06,37,0,0,51.7602
4.9,183.369,195.978,162.8,37,0,0,52.4089
4.92,183.817,196.567,163.54,37,0,0,53.0563
4.94,184.258,197.161,164.28,37,0,0,53.7022
4.96,184.693,197.76,165.02,37,0,0,54.3461
4.98,185.121,198.364,165.76,37,0,0,54.9879
5,185.542,198.972,166.5,37,0,0,55.6272
5.02,185.956,199.585,167.24,37,0,0,56.2638
5.04,186.364,200.203,167.98,37,0,0,56.8973
5.06,186.765,200.825,168.72,37,0,0,57.5276
5.08,187.158,201.452,169.46,37,0,0,58.154
5.1,187.545,202.082,170.2,37,0,0,58.7763
5.12,187.926,202.717,170.94,37,0,0,59.3944
5.14,188.299,203.356,171.68,37,0,0,60.0083
5.16,188.665,203.999,172.42,37,0,0,60.6175
5.18,189.025,204.646,173.16,37,0,0,61.222
5.2,189.378,205.296,173.9,37,0,0,61.8215
5.22,189.724,205.95,174.64,37,0,0,62.4158
5.24,190.063,206.608,175.38,37,0,0,63.0043
5.26,190.396,207.269,176.12,37,0,0,63.5867
5.28,190.722,207.933,176.86,37,0,0,64.1634
5.3,191.041,208.601,177.6,37,0,0,64.7342
5.32,191.353,209.272,178.34,37,0,0,65.299
5.34,191.659,209.946,179.08,37,0,0,65.8576
5.36,191.959,210.622,179.82,37,0,0,66.41
5.38,192.251,211.302,180.56,37,0,0,66.9557
5.4,192.538,211.984,181.3,37,0,0,67.4939
5.42,192.818,212.669,182.04,37,0,0,68.0256
5.44,193.092,213.357,182.78,37,0,0,68.5507
5.46,193.359,214.047,183.52,37,0,0,69.0691
5.48,193.62,214.739,184.26,37,0,0,69.5807
5.5,193.876,215.434,185,37,0,0,70.0856
5.52,194.125,216.13,185.74,37,0,0,70.5821
5.54,194.368,216.829,186.48,37,0,0,71.0716
5.56,194.605,217.53,187.22,37,0,0,71.5543
5.58,194.836,218.233,187.96,37,0,0,72.0301
5.6,195.061,218.938,188.7,37,0,0,72.499
5.62,195.281,219.645,189.44,37,0,0,72.9607
5.64,195.495,220.353,190.18,37,0,0,73.4139
5.66,195.703,221.063,190.92,37,0,0,73.8603
5.68,195.906,221.775,191.66,37,0,0,74.2999
5.7,196.104,222.488,192.4,37,0,0,74.7327
5.72,196.296,223.203,193.14,37,0,0,75.1587
5.74,196.483,223.919,193.88,37,0,0,75.576
5.76,196.665,224.636,194.62,37,0,0,75.9864
5.78,196.841,225.354,195.36,37,0,0,76.3902
5.8,197.013,226.074,196.1,37,0,0,76.7874
5.82,197.18,226.795,196.84,37,0,0,77.1781
5.84,197.341,227.517,197.58,37,0,0,77.56
5.86,197.498,228.241,198.32,37,0,0,77.9354
5.88,197.651,228.965,199.06,37,0,0,78.3045
5.9,197.798,229.69,199.8,37,0,0,78.6673
5.92,197.942,230.416,200.54,37,0,0,79.0229
5.94,198.08,231.143,201.28,37,0,0,79.3708
5.96,198.215,231.87,202.02,37,0,0,79.7127
5.98,198.345,232.599,202.76,37,0,0,80.0485
6,198.47,233.328,203.5,37,0,0,80.3784
6.02,198.592,234.058,204.24,37,0,0,80.6998
6.04,198.71,234.789,204.98,37,0,0,81.0153
6.06,198.823,235.52,205.72,37,0,0,81.3252
6.08,198.933,236.252,206.46,37,0,0,81.6294
6.1,199.039,236.984,207.2,37,0,0,81.9258
6.12,199.141,237.717,207.94,37,0,0,82.2162
6.14,199.239,238.451,208.68,37,0,0,82.5011
6.16,199.334,239.184,209.42,37,0,0,82.7807
6.18,199.425,239.919,210.16,37,0,0,83.0528
6.2,199.513,240.654,210.9,37,0,0,83.319
6.22,199.597,241.389,211.64,37,0,0,83.5809
6.24,199.678,242.124,212.38,37,0,0,83.8362
6.26,199.756,242.86,213.12,37,0,0,84.0851
6.28,199.831,243.596,213.86,37,0,0,84.329
6.3,199.902,244.333,214.6,37,0,0,84.5665
6.32,199.971,245.07,215.34,37,0,0,84.799
6.34,200.037,245.807,216.08,37,0,0,85.0255
6.36,200.099,246.544,216.82,37,0,0,85.2468
6.38,200.159,247.282,217.56,37,0,0,85.4625
6.4,200.216,248.019,218.3,37,0,0,85.6728
6.42,200.271,248.757,219.04,37,0,0,85.8779
6.44,200.323,249.496,219.78,37,0,0,86.0774
6.46,200.372,250.234,220.52,37,0,0,86.2721
6.48,200.419,250.973,221.26,37,0,0,86.461
6.5,200.464,251.711,222,37,0,0,86.6452
6.52,200.506,252.45,222.74,37,0,0,86.8239
6.54,200.546,253.189,223.48,37,0,0,86.9976
6.56,200.583,253.928,224.22,37,0,0,87.1664
6.58,200.619,254.667,224.96,37,0,0,87.3299
6.6,200.652,255.406,225.7,37,0,0,87.4888
6.62,200.684,256.146,226.44,37,0,0,87.6421
6.64,200.713,256.885,227.18,37,0,0,87.7909
6.66,200.741,257.625,227.92,37,0,0,87.9347
6.68,200.766,258.364,228.66,37,0,0,88.0734
6.7,200.79,259.104,229.4,37,0,0,88.2077
6.72,200.813,259.843,230.14,37,0,0,88.3366
6.74,200.833,260.583,230.88,36.91,-37,0,88.4609
6.76,200.852,261.314,231.611,36.17,-37,0,88.579
6.78,200.869,262.029,232.327,35.43,-37,0,88.6899
6.8,200.885,262.73,233.028,34.69,-37,0,88.7945
6.82,200.899,263.417,233.714,33.95,-37,0,88.8926
6.84,200.911,264.088,234.386,33.21,-37,0,88.9844
6.86,200.922,264.745,235.043,32.47,-37,0,89.0705
6.88,200.932,265.387,235.685,31.73,-37,0,89.1511
6.9,200.941,266.014,236.312,30.99,-37,0,89.2265
6.92,200.949,266.626,236.924,30.25,-37,0,89.2966
6.94,200.956,267.224,237.522,29.51,-37,0,89.3618
6.96,200.962,267.807,238.105,28.77,-37,0,89.4224
6.98,200.968,268.375,238.673,28.03,-37,0,89.4786
7,200.972,268.928,239.226,27.29,-37,0,89.5307
7.02,200.976,269.466,239.764,26.55,-37,0,89.5788
7.04,200.98,269.99,240.288,25.81,-37,0,89.6232
7.06,200.983,270.498,240.797,25.07,-37,0,89.6639
7.08,200.986,270.992,241.291,24.33,-37,0,89.7014
7.1,200.988,271.472,241.77,23.59,-37,0,89.7357
7.12,200.99,271.936,242.234,22.85,-37,0,89.767
7.14,200.992,272.386,242.684,22.11,-37,0,89.7952
7.16,200.994,272.82,243.119,21.37,-37,0,89.8208
7.18,200.995,273.24,243.539,20.63,-37,0,89.8441
7.2,200.996,273.646,243.944,19.89,-37,0,89.8652
7.22,200.997,274.036,244.334,19.15,-37,0,89.8839
7.24,200.997,274.412,244.71,18.41,-37,0,89.9004
7.26,200.998,274.772,245.071,17.67,-37,0,89.9154
7.28,200.998,275.118,245.417,16.93,-37,0,89.9286
7.3,200.999,275.45,245.748,16.19,-37,0,89.94
7.32,200.999,275.766,246.064,15.45,-37,0,89.9504
7.34,200.999,276.068,246.366,14.71,-37,0,89.9589
7.36,200.999,276.354,246.653,13.97,-37,0,89.9666
7.38,201,276.626,246.925,13.23,-37,0,89.9729
7.4,201,276.884,247.182,12.49,-37,0,89.9785
7.42,201,277.126,247.424,11.75,-37,0,89.9829
7.44,201,277.354,247.652,11.01,-37,0,89.987
7.46,201,277.566,247.865,10.27,-37,0,89.9899
7.48,201,277.764,248.063,9.53,-37,0,89.9924
7.5,201,277.948,248.246,8.79,-37,0,89.9946
7.52,201,278.116,248.414,8.05,-37,0,89.9959
7.54,201,278.27,248.568,7.31,-37,0,89.9971
7.56,201,278.408,248.707,6.57,-37,0,89.9982
7.58,201,278.532,248.831,5.83,-37,0,89.9988
7.6,201,278.642,248.94,5.09,-37,0,89.9991
7.62,201,278.736,249.034,4.35,-37,0,89.9993
7.64,201,278.816,249.114,3.61,-37,0,89.9995
7.66,201,278.88,249.179,2.87,-37,0,89.9997
7.68,201,278.93,249.229,2.13,-37,0,89.9998
7.7,201,278.965,249.264,1.39,-37,0,89.9999
7.72,201,278.984,249.282,0.65,-37,0,90
