"time","x","y","position","velocity","acceleration","jerk","heading"
0,30,173.5,0,0,0,0,0
0.02,30.1095,173.5,0.109482,5.4741,273.705,13685.2,7.64208e-05
0.04,30.2191,173.5,0.219064,5.4791,0.25,-13672.7,0.000152842
0.06,30.3285,173.5,0.328546,5.4741,-0.249999,-25,0.000229262
0.08,30.4381,173.5,0.438128,5.4791,0.249999,24.9999,0.000305683
0.1,30.5476,173.5,0.54761,5.4741,-0.25,-25,0.000382104
0.12,30.6572,173.5,0.657192,5.4791,0.25,25,0.000458525
0.14,30.7667,173.5,0.766674,5.4741,-0.249999,-25,0.000534945
0.16,30.8763,173.5,0.876256,5.4791,0.249999,24.9999,0.000611366
0.18,30.9857,173.5,0.985738,5.4741,-0.25,-25,0.000687787
0.2,31.2301,173.5,1.23013,12.2195,337.268,16875.9,0.00115864
0.22,31.4945,173.5,1.4945,13.2188,49.9657,-14365.1,0.00168775
0.24,31.7589,173.5,1.75888,13.2188,-5.89041e-06,-2498.28,0.00221687
0.26,32.0303,173.5,2.03034,13.5731,17.717,885.852,0.00280196
0.28,32.3748,173.5,2.37477,17.2214,182.417,8234.99,0.00395266
0.3,32.7192,173.5,2.7192,17.2214,5.8914e-06,-9120.84,0.00510335
0.32,33.0756,173.5,3.07559,17.8197,29.9139,1495.69,0.00640027
0.34,33.4839,173.5,3.48394,20.4173,129.879,4998.28,0.00832621
0.36,33.8924,173.5,3.89238,20.4223,0.249971,-6481.48,0.0102522
0.38,34.3416,173.5,4.34157,22.4593,101.851,5080.05,0.0128557
0.4,34.8049,173.5,4.8049,23.1666,35.3616,-3324.47,0.0156942
0.42,35.2971,173.501,5.29709,24.6094,72.1426,1839.05,0.0191437
0.44,35.8095,173.501,5.80948,25.6193,50.4949,-1082.39,0.023022
0.46,36.3503,173.501,6.35029,27.0406,71.0629,1028.4,0.0276423
0.48,36.9073,173.501,6.9073,27.8506,40.5034,-1527.98,0.0326813
0.5,37.4992,173.502,7.49916,29.5929,87.1147,2330.57,0.0388024
0.52,38.1043,173.502,8.10431,30.2576,33.236,-2693.93,0.0453681
0.54,38.741,173.503,8.741,31.8343,78.831,2279.75,0.0530728
0.56,39.3999,173.503,9.39987,32.9434,55.4561,-1168.75,0.0616976
0.58,40.0772,173.504,10.0772,33.8691,46.2854,-458.532,0.0711142
0.6,40.7845,173.505,10.7845,35.3627,74.6789,1419.67,0.0819246
0.62,41.5153,173.506,11.5153,36.5381,58.7699,-795.449,0.0939743
0.64,42.2668,173.507,12.2668,37.5793,52.0608,-335.458,0.107194
0.66,43.0405,173.509,13.0405,38.6838,55.2259,158.256,0.121736
0.68,43.8415,173.511,13.8415,40.047,68.16,646.708,0.138128
0.7,44.6668,173.513,14.6668,41.2668,60.989,-358.552,0.156236
0.72,45.5145,173.515,15.5145,42.3868,56.0008,-249.41,0.17604
0.74,46.3851,173.518,16.3851,43.5302,57.1708,58.498,0.197688
0.76,47.2789,173.522,17.279,44.6919,58.0825,45.5851,0.221334
0.78,48.1963,173.525,18.1963,45.8663,58.7211,31.9331,0.247134
0.8,49.1371,173.53,19.1372,47.0445,58.9095,9.41846,0.275245
0.82,50.1016,173.535,20.1017,48.2253,59.0425,6.64757,0.305829
0.84,51.0897,173.54,21.0898,49.4042,58.9453,-4.85726,0.339051
0.86,52.1012,173.546,22.1013,50.5765,58.6122,-16.6545,0.375075
0.88,53.1362,173.554,23.1364,51.7521,58.7807,8.42241,0.414073
0.9,54.1945,173.562,24.1947,52.915,58.1463,-31.7184,0.456215
0.92,55.276,173.57,25.2762,54.0758,58.0404,-5.29646,0.501714
0.94,56.3803,173.58,26.3805,55.2186,57.1393,-45.053,0.550829
0.96,57.5076,173.592,27.5079,56.3655,57.3417,10.1193,0.603686
0.98,58.6574,173.604,28.6578,57.4948,56.4684,-43.6662,0.660411
1,59.8297,173.619,29.8301,58.6187,56.1949,-13.676,0.721189
1.02,61.0274,173.635,31.028,59.8916,63.6428,372.395,0.786863
1.04,62.2473,173.651,32.2479,60.9989,55.3665,-413.812,0.857056
1.06,63.4891,173.671,33.4899,62.1004,55.0768,-14.4837,0.931965
1.08,64.7526,173.693,34.7536,63.184,54.1791,-44.8891,1.01179
1.1,66.0416,173.717,36.0428,64.4588,63.7379,477.942,1.09771
1.12,67.3518,173.742,37.3533,65.5261,53.3683,-518.479,1.18909
1.14,68.6833,173.772,38.6851,66.5873,53.0591,-15.4585,1.28622
1.16,70.0393,173.803,40.0414,67.8185,61.5581,424.95,1.39063
1.18,71.4096,173.837,41.4122,68.5396,36.056,-1275.11,1.50075
1.2,72.782,173.875,42.7851,68.6414,5.08875,-1548.36,1.61614
1.22,74.1529,173.915,44.1566,68.5781,-3.16614,-412.744,1.73684
1.24,75.5227,173.958,45.527,68.5213,-2.83786,16.4142,1.86232
1.26,76.8909,174.004,46.8961,68.452,-3.46383,-31.2986,1.99367
1.28,78.2579,174.053,48.2639,68.3925,-2.9765,24.3665,2.13009
1.3,79.6234,174.105,49.6304,68.3247,-3.39155,-20.7524,2.27205
1.32,80.9875,174.162,50.9957,68.2636,-3.05182,16.9864,2.41987
1.34,82.35,174.22,52.3595,68.1885,-3.75481,-35.1495,2.57315
1.36,83.7109,174.284,53.7218,68.1164,-3.60889,7.2962,2.73308
1.38,85.0702,174.351,55.0828,68.0495,-3.34309,13.2899,2.89865
1.4,86.4279,174.422,56.4423,67.977,-3.62664,-14.1777,3.07039
1.42,87.7839,174.496,57.8004,67.901,-3.79827,-8.5816,3.24864
1.44,89.1382,174.576,59.157,67.8307,-3.51435,14.1961,3.43279
1.46,90.4905,174.659,60.5119,67.7471,-4.18149,-33.357,3.62421
1.48,91.841,174.747,61.8653,67.6687,-3.91882,13.1334,3.82193
1.5,93.1897,174.839,63.2171,67.5907,-3.89901,0.990395,4.02655
1.52,94.5362,174.936,64.5671,67.5005,-4.50877,-30.4878,4.23849
1.54,95.8809,175.038,65.9156,67.4258,-3.7351,38.6833,4.45707
1.56,97.2231,175.146,67.2622,67.3279,-4.89675,-58.0823,4.68383
1.58,98.5633,175.258,68.607,67.243,-4.24492,32.5915,4.91784
1.6,99.9009,175.376,69.9498,67.1401,-5.14657,-45.0825,5.15981
1.62,101.236,175.5,71.2908,67.0494,-4.53492,30.5826,5.41008
1.64,102.57,175.629,72.6306,66.989,-3.02148,75.672,5.66788
1.66,103.9,175.764,73.9678,66.8591,-6.49361,-173.606,5.93499
1.68,105.228,175.905,75.3028,66.7502,-5.44577,52.3921,6.21019
1.7,106.552,176.052,76.6355,66.6334,-5.83959,-19.6913,6.4943
1.72,107.874,176.206,77.9667,66.5612,-3.60881,111.539,6.7879
1.74,109.193,176.367,79.2947,66.4018,-7.96759,-217.939,7.09011
1.76,110.509,176.534,80.6212,66.3256,-3.81323,207.718,7.40299
1.78,111.821,176.708,81.9455,66.2114,-5.70721,-94.699,7.72518
1.8,113.131,176.89,83.2674,66.0948,-5.82972,-6.12545,8.05762
1.82,114.436,177.079,84.586,65.9304,-8.22449,-119.739,8.40098
1.84,115.738,177.275,85.9033,65.8645,-3.29299,246.575,8.75427
1.86,117.036,177.479,87.2172,65.6965,-8.402,-255.45,9.11989
1.88,118.33,177.691,88.5279,65.5344,-8.10277,14.9615,9.49627
1.9,119.619,177.912,89.8361,65.4123,-6.10344,99.9665,9.88583
1.92,120.905,178.14,91.1422,65.3048,-5.37844,36.2502,10.2869
1.94,122.186,178.377,92.4444,65.1083,-9.82466,-222.311,10.6997
1.96,123.462,178.623,93.7442,64.9918,-5.82419,200.023,11.1261
1.98,124.733,178.878,95.041,64.8393,-7.62545,-90.0629,11.5653
2,125.999,179.142,96.3338,64.6376,-10.0843,-122.941,12.0185
2.02,127.259,179.416,97.6235,64.4859,-7.58654,124.886,12.486
2.04,128.515,179.699,98.9104,64.3468,-6.95121,31.7664,12.9671
2.06,129.764,179.992,100.193,64.142,-10.2415,-164.515,13.4646
2.08,131.006,180.295,101.473,63.9674,-8.73135,75.5077,13.9764
2.1,132.243,180.609,102.748,63.7676,-9.98963,-62.914,14.5051
2.12,133.473,180.933,104.02,63.5966,-8.54975,71.9941,15.0498
2.14,134.696,181.268,105.288,63.4037,-9.64202,-54.6139,15.6088
2.16,135.91,181.615,106.551,63.1405,-13.1625,-176.023,16.1898
2.18,137.118,181.972,107.811,62.9893,-7.56226,280.011,16.7868
2.2,138.318,182.34,109.066,62.7681,-11.0577,-174.771,17.3994
2.22,139.509,182.721,110.316,62.5269,-12.0577,-50.0018,18.0353
2.24,140.691,183.113,111.562,62.2713,-12.7809,-36.1582,18.6884
2.26,141.865,183.519,112.804,62.104,-8.36466,220.811,19.3614
2.28,143.03,183.935,114.041,61.8283,-13.7865,-271.093,20.0549
2.3,144.184,184.365,115.272,61.5899,-11.9202,93.3186,20.768
2.32,145.329,184.806,116.499,61.3313,-12.9301,-50.4967,21.5033
2.34,146.462,185.262,117.72,61.0739,-12.8686,3.07325,22.2608
2.36,147.585,185.73,118.937,60.8365,-11.87,49.9313,23.0383
2.38,148.697,186.212,120.149,60.5816,-12.7468,-43.842,23.84
2.4,149.795,186.707,121.354,60.2664,-15.7576,-150.537,24.6644
2.42,150.883,187.216,122.554,60.0146,-12.5942,158.172,25.5112
2.44,151.957,187.739,123.75,59.7635,-12.554,2.00951,26.3814
2.46,153.02,188.275,124.94,59.5045,-12.9505,-19.8288,27.2733
2.48,154.067,188.827,126.124,59.1927,-15.5863,-131.79,28.191
2.5,155.101,189.391,127.301,58.8825,-15.5105,3.79266,29.132
2.52,156.122,189.971,128.475,58.693,-9.47755,301.647,30.0954
2.54,157.126,190.565,129.642,58.3516,-17.071,-379.672,31.0826
2.56,158.116,191.173,130.804,58.0825,-13.4518,180.959,32.0914
2.58,159.091,191.796,131.961,57.8444,-11.9049,77.3482,33.1246
2.6,160.049,192.434,133.112,57.5759,-13.4277,-76.1418,34.1783
2.62,160.992,193.087,134.259,57.3323,-12.1791,62.4291,35.2536
2.64,161.918,193.755,135.401,57.1013,-11.5508,31.4168,36.3504
2.66,162.827,194.438,136.538,56.8474,-12.694,-57.1594,37.466
2.68,163.719,195.135,137.67,56.6262,-11.0618,81.6064,38.6007
2.7,164.595,195.848,138.799,56.438,-9.4089,82.6466,39.7499
2.72,165.452,196.577,139.924,56.2439,-9.70424,-14.7671,40.9193
2.74,166.292,197.32,141.046,56.0856,-7.91279,89.5726,42.1
2.76,167.114,198.079,142.165,55.9459,-6.98495,46.3921,43.295
2.78,167.919,198.852,143.28,55.7813,-8.23277,-62.3908,44.5004
2.8,168.705,199.641,144.394,55.6983,-4.14668,204.304,45.7147
2.82,169.472,200.446,145.506,55.5931,-5.2648,-55.906,46.9366
2.84,170.222,201.266,146.617,55.5565,-1.82842,171.819,48.1628
2.86,170.954,202.101,147.728,55.5217,-1.74005,4.41835,49.3929
2.88,171.668,202.951,148.837,55.4892,-1.62307,5.84897,50.6234
2.9,172.362,203.817,149.948,55.5186,1.46932,154.62,51.8524
2.92,173.039,204.698,151.059,55.5551,1.82669,17.8684,53.0781
2.94,173.698,205.594,152.171,55.6208,3.28237,72.7841,54.2981
2.96,174.339,206.507,153.286,55.7445,6.18519,145.141,55.5102
2.98,174.962,207.433,154.403,55.8326,4.40489,-89.0151,56.7131
3,175.566,208.375,155.522,55.9681,6.77765,118.638,57.903
3.02,176.153,209.333,156.645,56.1305,8.11557,66.8964,59.0803
3.04,176.721,210.305,157.771,56.302,8.57587,23.015,60.2417
3.06,177.273,211.291,158.901,56.5022,10.0137,71.8915,61.3871
3.08,177.806,212.293,160.036,56.7513,12.4545,122.041,62.5127
3.1,178.322,213.308,161.175,56.9455,9.70761,-137.346,63.62
3.12,178.82,214.338,162.319,57.2031,12.8783,158.533,64.7058
3.14,179.301,215.382,163.468,57.4621,12.9536,3.7643,65.7683
3.16,179.766,216.439,164.623,57.7473,14.2605,65.347,66.8091
3.18,180.213,217.51,165.784,58.0438,14.8212,28.0351,67.8253
3.2,180.644,218.594,166.95,58.2867,12.1479,-133.664,68.8194
3.22,181.058,219.69,168.122,58.6221,16.7707,231.137,69.7869
3.24,181.456,220.799,169.299,58.8655,12.1693,-230.067,70.7279
3.26,181.838,221.92,170.484,59.2395,18.6984,326.455,71.6452
3.28,182.203,223.053,171.674,59.4935,12.701,-299.871,72.5357
3.3,182.554,224.196,172.87,59.8184,16.2428,177.089,73.4015
3.32,182.888,225.351,174.072,60.0856,13.3601,-144.135,74.2407
3.34,183.208,226.516,175.28,60.4103,16.2348,143.736,75.0538
3.36,183.513,227.691,176.494,60.6954,14.2557,-98.9531,75.8435
3.38,183.803,228.876,177.715,61.0176,16.1094,92.685,76.6067
3.4,184.079,230.071,178.941,61.3361,15.9251,-9.214,77.3417
3.42,184.342,231.275,180.174,61.615,13.9445,-99.033,78.0547
3.44,184.591,232.487,181.411,61.8462,11.5629,-119.08,78.7447
3.46,184.826,233.709,182.655,62.2221,18.7949,361.6,79.4062
3.48,185.049,234.938,183.905,62.4767,12.7287,-303.311,80.0469
3.5,185.259,236.175,185.159,62.7185,12.0889,-31.9865,80.6637
3.52,185.457,237.42,186.42,63.0334,15.745,182.803,81.2567
3.54,185.643,238.671,187.684,63.2131,8.98489,-338.004,81.8296
3.56,185.816,239.928,188.953,63.4683,12.7624,188.874,82.376
3.58,185.979,241.179,190.215,63.0831,-19.2597,-1601.11,82.8973
3.6,186.127,242.415,191.459,62.2153,-43.3903,-1206.53,83.3912
3.62,186.263,243.634,192.686,61.3377,-43.8825,-24.6122,83.8558
3.64,186.388,244.837,193.896,60.4966,-42.0534,91.4574,84.2935
3.66,186.502,246.023,195.087,59.5786,-45.8996,-192.312,84.7065
3.68,186.605,247.192,196.26,58.6453,-46.6667,-38.3537,85.093
3.7,186.701,248.342,197.415,57.7177,-46.3779,14.437,85.4577
3.72,186.787,249.474,198.55,56.7774,-47.0132,-31.7617,85.8012
3.74,186.866,250.589,199.668,55.8891,-44.4146,129.928,86.1245
3.76,186.937,251.683,200.764,54.8148,-53.7177,-465.155,86.4266
3.78,187.001,252.759,201.842,53.8648,-47.501,310.835,86.7098
3.8,187.06,253.815,202.9,52.9044,-48.0167,-25.7829,86.9756
3.82,187.112,254.852,203.937,51.8867,-50.8848,-143.405,87.2245
3.84,187.159,255.868,204.955,50.8634,-51.1689,-14.2069,87.4575
3.86,187.202,256.865,205.952,49.8836,-48.9896,108.966,87.6752
3.88,187.239,257.84,206.928,48.7933,-54.5152,-276.278,87.8784
3.9,187.274,258.795,207.884,47.8023,-49.5506,248.228,88.0677
3.92,187.303,259.73,208.819,46.75,-52.6136,-153.149,88.2438
3.94,187.33,260.643,209.733,45.6909,-52.956,-17.1216,88.4076
3.96,187.353,261.535,210.626,44.6295,-53.0671,-5.55233,88.5592
3.98,187.374,262.406,211.497,43.5593,-53.5093,-22.11,88.6996
4,187.393,263.257,212.348,42.5299,-51.472,101.862,88.8295
4.02,187.409,264.086,213.177,41.4923,-51.8774,-20.2682,88.9497
4.04,187.423,264.894,213.985,40.4005,-54.5902,-135.641,89.0605
4.06,187.434,265.677,214.768,39.1228,-63.8854,-464.761,89.1608
4.08,187.445,266.437,215.528,38.0165,-55.3175,428.395,89.2531
4.1,187.455,267.178,216.269,37.0507,-48.288,351.477,89.3382
4.12,187.463,267.899,216.991,36.0785,-48.6095,-16.0775,89.4166
4.14,187.469,268.593,217.684,34.6813,-69.8611,-1062.58,89.4862
4.16,187.474,269.264,218.355,33.5556,-56.2868,678.714,89.5495
4.18,187.479,269.918,219.01,32.7106,-42.2503,701.826,89.6081
4.2,187.483,270.544,219.636,31.2939,-70.8332,-1429.14,89.6596
4.22,187.486,271.147,220.239,30.1561,-56.8911,697.106,89.7058
4.24,187.489,271.737,220.829,29.4938,-33.1146,1188.82,89.7488
4.26,187.492,272.289,221.38,27.5822,-95.5808,-3123.31,89.7843
4.28,187.493,272.831,221.922,27.1007,-24.0753,3575.27,89.8182
4.3,187.495,273.338,222.43,25.3739,-86.3405,-3113.26,89.8459
4.32,187.496,273.834,222.926,24.7902,-29.1826,2857.89,89.8722
4.34,187.497,274.293,223.385,22.9538,-91.8189,-3131.82,89.8931
4.36,187.498,274.749,223.841,22.8085,-7.26436,4227.73,89.9136
4.38,187.498,275.154,224.245,20.228,-129.027,-6088.15,89.9282
4.4,187.499,275.56,224.651,20.2792,2.56196,6579.46,89.9427
4.42,187.499,275.926,225.017,18.3192,-98.0003,-5028.11,89.9538
4.44,187.499,276.269,225.36,17.144,-58.763,1961.86,89.9628
4.46,187.5,276.612,225.703,17.144,0.00363622,2938.33,89.9718
4.48,187.5,276.897,225.989,14.2828,-143.06,-7153.17,89.9775
4.5,187.5,277.16,226.252,13.1482,-56.7342,4316.28,89.9819
4.52,187.5,277.424,226.516,13.1982,2.5,2961.71,89.9863
4.54,187.5,277.687,226.779,13.147,-2.5589,-252.945,89.9908
4.56,187.5,277.806,226.897,5.93822,-360.438,-17894,89.9918
4.58,187.5,277.916,227.007,5.49058,-22.3822,16902.8,89.9926
4.6,187.5,278.025,227.116,5.44058,-2.5,994.11,89.9934
4.62,187.5,278.134,227.226,5.4894,2.4411,247.055,89.9943
4.64,187.5,278.244,227.336,5.49058,0.0589049,-119.11,89.9951
4.66,187.5,278.353,227.444,5.44058,-2.5,-127.945,89.9959
4.68,187.5,278.463,227.554,5.49058,2.5,250,89.9967
4.7,187.5,278.572,227.663,5.44058,-2.5,-250,89.9975
4.72,187.5,278.681,227.773,5.49058,2.5,250,89.9983
