"time","x","y","position","velocity","acceleration","jerk","heading"
0,0,13,0,0,0,0,0
0.02,0.0892433,13,0.0892433,4.46216,223.108,11155.4,0.000878974
0.04,0.178486,13,0.178486,4.46214,-0.00100123,-11155.5,0.00175795
0.06,0.26773,13,0.26773,4.46218,0.00175336,0.13773,0.00263692
0.08,0.356973,13,0.356973,4.46218,-5.66135e-06,-0.0879512,0.0035159
0.1,0.446217,13,0.446217,4.46218,5.73591e-06,0.000569863,0.00439487
0.12,0.535459,13,0.535459,4.46213,-0.00250556,-0.125565,0.00527385
0.14,0.624703,13,0.624703,4.46218,0.00250584,0.25057,0.00615282
0.16,0.713947,13,0.713947,4.46218,2.21463e-07,-0.125281,0.00703179
0.18,0.803189,13,0.803189,4.46213,-0.0025054,-0.125281,0.00791077
0.2,0.892433,13,0.892433,4.46218,0.002506,0.25057,0.00878974
0.22,0.981676,13,0.981676,4.46218,-5.29296e-06,-0.125565,0.00966872
0.24,1.174,13.0001,1.174,9.61626,257.704,12885.2,0.0131715
0.26,1.38902,13.0001,1.38902,10.7507,56.7225,-10049.1,0.0172516
0.28,1.60402,13.0002,1.60402,10.7502,-0.0249349,-2837.37,0.0213316
0.3,1.81902,13.0002,1.81902,10.7502,-4.55772e-05,1.24446,0.0254117
0.32,2.04622,13.0003,2.04622,11.3597,30.4756,1523.78,0.03024
0.34,2.3258,13.0005,2.3258,13.9792,130.974,5024.92,0.0382874
0.36,2.60539,13.0007,2.60539,13.9792,0.000118797,-6548.7,0.0463347
0.38,2.88497,13.0009,2.88497,13.9792,7.59542e-05,-0.00214216,0.054382
0.4,3.19678,13.0012,3.19678,15.5906,80.5687,4028.43,0.0670243
0.42,3.52713,13.0016,3.52713,16.5171,46.3277,-1712.05,0.0823068
0.44,3.85746,13.0021,3.85746,16.5166,-0.0246897,-2317.62,0.0975893
0.46,4.21586,13.0028,4.21586,17.9201,70.1723,3509.85,0.116227
0.48,4.59008,13.0036,4.59008,18.7111,39.5523,-1531,0.136757
0.5,4.96431,13.0045,4.96432,18.7117,0.0257849,-1976.33,0.157287
0.52,5.37737,13.0057,5.37738,20.6532,97.076,4852.51,0.183812
0.54,5.79045,13.0071,5.79045,20.6537,0.0265384,-4852.47,0.210337
0.56,6.22467,13.0088,6.22469,21.7116,52.8926,2643.3,0.242741
0.58,6.67221,13.0108,6.67223,22.3772,33.2817,-980.543,0.278841
0.6,7.13333,13.0132,7.13335,23.0561,33.943,33.0654,0.317781
0.62,7.61321,13.016,7.61324,23.9946,46.9279,649.243,0.360648
0.64,8.10444,13.0193,8.10448,24.5618,28.358,-928.492,0.406245
0.66,8.61436,13.0231,8.61441,25.4968,46.7531,919.752,0.456348
0.68,9.13679,13.0275,9.13686,26.1225,31.2849,-773.409,0.511741
0.7,9.67396,13.0326,9.67406,26.8596,36.8525,278.381,0.573369
0.72,10.2281,13.0384,10.2282,27.7091,42.4777,281.261,0.640356
0.74,10.7917,13.045,10.7919,28.1835,23.7206,-937.858,0.710296
0.76,11.3783,13.0526,11.3785,29.3286,57.2533,1676.64,0.788214
0.78,11.9731,13.0612,11.9734,29.7444,20.7895,-1823.19,0.870084
0.8,12.5848,13.071,12.5852,30.5907,42.313,1076.18,0.960731
0.82,13.2119,13.082,13.2123,31.3563,38.2827,-201.518,1.0589
0.84,13.8494,13.0943,13.85,31.8848,26.4259,-592.839,1.16215
0.86,14.5051,13.1082,14.5058,32.7901,45.264,941.906,1.27388
0.88,15.175,13.1237,15.1759,33.5029,35.6405,-481.174,1.39345
0.9,15.8564,13.141,15.8575,34.0806,28.8816,-337.946,1.52046
0.92,16.5515,13.1603,16.5529,34.7689,34.419,276.868,1.65797
0.94,17.2637,13.1818,17.2654,35.6292,43.0139,429.746,1.80586
0.96,17.9881,13.2055,17.9902,36.238,30.4373,-628.832,1.96166
0.98,18.7251,13.2318,18.7277,36.8747,31.8386,70.0674,2.12604
1,19.475,13.2608,19.4782,37.524,32.4615,31.1449,2.29973
1.02,20.232,13.2924,20.2358,37.879,17.7501,-735.569,2.48668
1.04,20.9875,13.3264,20.992,37.8144,-3.22662,-1048.84,2.67938
1.06,21.7416,13.363,21.7471,37.7513,-3.15397,3.63241,2.87776
1.08,22.4943,13.4021,22.5008,37.6855,-3.29482,-7.04235,3.08169
1.1,23.2457,13.4439,23.2533,37.6266,-2.94038,17.7221,3.29105
1.12,23.9953,13.4884,24.0043,37.5482,-3.92297,-49.1296,3.5072
1.14,24.7436,13.5357,24.754,37.4865,-3.08553,41.8721,3.72873
1.16,25.4907,13.5858,25.5028,37.4411,-2.26717,40.9182,3.95427
1.18,26.237,13.6389,26.251,37.4074,-1.68899,28.9089,4.18287
1.2,26.9824,13.6949,26.9985,37.376,-1.57,5.9494,4.41395
1.22,27.7272,13.7539,27.7456,37.3569,-0.953254,30.8373,4.64693
1.24,28.4717,13.816,28.4927,37.3533,-0.180038,38.6608,4.88007
1.26,29.2162,13.8811,29.24,37.3663,0.65186,41.5949,5.1124
1.28,29.9608,13.9492,29.9878,37.3866,1.01541,18.1776,5.34289
1.3,30.7057,14.0204,30.7361,37.4149,1.4126,19.8593,5.57044
1.32,31.4519,14.0946,31.4859,37.4923,3.87273,123.007,5.79162
1.34,32.1993,14.1719,32.2374,37.5727,4.01714,7.22046,6.00575
1.36,32.9483,14.2521,32.9906,37.6646,4.59605,28.9454,6.21138
1.38,33.6994,14.3352,33.7463,37.7808,5.80821,60.608,6.40722
1.4,34.4525,14.421,34.5042,37.8991,5.91429,5.3039,6.59218
1.42,35.2092,14.5096,35.2662,38.0957,9.83227,195.899,6.76017
1.44,35.9689,14.6008,36.0313,38.258,8.11415,-85.9057,6.91372
1.46,36.7319,14.6944,36.8,38.4352,8.85883,37.2338,7.05186
1.48,37.4983,14.7901,37.5723,38.6164,9.06303,10.2103,7.17369
1.5,38.2683,14.8878,38.3485,38.8099,9.67322,30.5091,7.27844
1.52,39.0436,14.9875,39.1302,39.084,13.7061,201.644,7.35931
1.54,39.8228,15.0887,39.916,39.2886,10.2282,-173.893,7.42185
1.56,40.6062,15.1912,40.706,39.502,10.6713,22.153,7.46601
1.58,41.3935,15.2947,41.5001,39.7024,10.0179,-32.6681,7.49191
1.6,42.1849,15.3989,42.2983,39.9132,10.5427,26.2379,7.49977
1.62,42.9815,15.5037,43.1018,40.1751,13.0924,127.486,7.48452
1.64,43.7819,15.6088,43.909,40.3587,9.18218,-195.512,7.45291
1.66,44.5857,15.7137,44.7196,40.531,8.61688,-28.2654,7.4058
1.68,45.3929,15.8183,45.5337,40.702,8.54862,-3.41289,7.34405
1.7,46.2034,15.9223,46.3508,40.8558,7.69124,-42.8687,7.26862
1.72,47.0177,16.0255,47.1715,41.0375,9.0816,69.5176,7.17697
1.74,47.8346,16.1277,47.9948,41.1643,6.34388,-136.886,7.07471
1.76,48.6539,16.2286,48.8203,41.2754,5.55235,-39.5767,6.96229
1.78,49.4754,16.3281,49.6478,41.3738,4.91858,-31.6881,6.84076
1.8,50.2989,16.4259,50.4772,41.4679,4.70629,-10.6149,6.71177
1.82,51.1243,16.5221,51.3082,41.5492,4.06702,-31.9632,6.5751
1.84,51.9509,16.6164,52.1401,41.5985,2.46547,-80.0775,6.43399
1.86,52.7787,16.7087,52.973,41.6439,2.2694,-9.8035,6.28921
1.88,53.6073,16.7989,53.8065,41.6758,1.59455,-33.7427,6.14151
1.9,54.4366,16.8871,54.6405,41.7001,1.21403,-19.0259,5.99157
1.92,55.2667,16.9731,55.475,41.7249,1.23901,1.24906,5.83979
1.94,56.0969,17.0569,56.3095,41.7231,-0.0894633,-66.4238,5.68766
1.96,56.9274,17.1385,57.144,41.7246,0.0760342,8.27488,5.53579
1.98,57.7579,17.2179,57.9782,41.7111,-0.676508,-37.6271,5.38465
2,58.5884,17.2951,58.8123,41.7042,-0.344856,16.5826,5.23457
2.02,59.4186,17.37,59.6459,41.6829,-1.06327,-35.9207,5.08641
2.04,60.2485,17.4428,60.479,41.6529,-1.49864,-21.7683,4.94053
2.06,61.078,17.5135,61.3115,41.6234,-1.47961,0.951228,4.79737
2.08,61.907,17.582,62.1433,41.5931,-1.51317,-1.67774,4.65703
2.1,62.7356,17.6485,62.9745,41.5607,-1.61933,-5.30825,4.51929
2.12,63.5635,17.7129,63.805,41.5225,-1.90822,-14.4446,4.38514
2.14,64.3908,17.7754,64.6346,41.4804,-2.10696,-9.93708,4.25496
2.16,65.2171,17.8359,65.4632,41.4297,-2.53282,-21.2927,4.12866
2.18,66.0429,17.8946,66.291,41.3925,-1.8621,33.5357,4.00597
2.2,66.8681,17.9515,67.1182,41.3561,-1.82108,2.05115,3.88641
2.22,67.6923,18.0066,67.9442,41.3024,-2.68366,-43.1291,3.77154
2.24,68.5154,18.0601,68.7691,41.2417,-3.0337,-17.502,3.662
2.26,69.3378,18.1119,69.5931,41.2017,-2.0037,51.5,3.55645
2.28,70.1594,18.1622,70.4163,41.1596,-2.10383,-5.00616,3.45421
2.3,70.9805,18.211,71.2388,41.1237,-1.79458,15.4625,3.35521
2.32,71.7996,18.2584,72.0593,41.0261,-4.88,-154.271,3.26447
2.34,72.6182,18.3044,72.8791,40.992,-1.70655,158.673,3.1773
2.36,73.4359,18.3492,73.6981,40.9498,-2.10899,-20.1223,3.09356
2.38,74.2527,18.3927,74.516,40.8964,-2.67091,-28.0957,3.01426
2.4,75.0682,18.4351,75.3326,40.8292,-3.35976,-34.4425,2.94152
2.42,75.8824,18.4764,76.1478,40.7613,-3.39559,-1.79182,2.8741
2.44,76.6958,18.5168,76.9623,40.7234,-1.895,75.0296,2.81026
2.46,77.508,18.5562,77.7754,40.6563,-3.35426,-72.9628,2.75259
2.48,78.3187,18.5948,78.5871,40.5819,-3.72029,-18.3018,2.70132
2.5,79.1285,18.6326,79.3977,40.5308,-2.55105,58.4621,2.6544
2.52,79.9371,18.6698,80.2072,40.4746,-2.81237,-13.0659,2.61276
2.54,80.7475,18.7064,81.0184,40.5609,4.31299,356.268,2.56339
2.56,81.5571,18.7423,81.8289,40.5227,-1.90582,-310.941,2.51724
2.58,82.3649,18.7774,82.6374,40.4248,-4.89646,-149.532,2.47961
2.6,83.1708,18.8121,83.4441,40.3353,-4.47395,21.1253,2.45022
2.62,83.9744,18.8463,84.2483,40.2145,-6.04331,-78.4682,2.43142
2.64,84.7761,18.8802,85.0508,40.1216,-4.64539,69.896,2.42033
2.66,85.5762,18.9139,85.8516,40.0396,-4.09548,27.4956,2.41688
2.68,86.3746,18.9476,86.6506,39.9537,-4.29751,-10.1016,2.42101
2.7,87.1712,18.9814,87.448,39.8687,-4.25186,2.2826,2.43266
2.72,87.9654,19.0152,88.243,39.7468,-6.09496,-92.1548,2.4551
2.74,88.7577,19.0494,89.036,39.6528,-4.69802,69.8468,2.48545
2.76,89.5484,19.0839,89.8274,39.5717,-4.05672,32.0648,2.52348
2.78,90.3373,19.119,90.6171,39.4815,-4.50827,-22.5772,2.56913
2.8,91.1244,19.1546,91.405,39.3956,-4.29383,10.722,2.62249
2.82,91.909,19.1909,92.1905,39.2735,-6.10734,-90.6758,2.68634
2.84,92.6918,19.2281,92.9741,39.1844,-4.45163,82.7857,2.75823
2.86,93.4728,19.2662,93.756,39.0944,-4.50118,-2.47773,2.83828
2.88,94.2518,19.3054,94.536,38.9986,-4.7903,-14.4559,2.92659
2.9,95.0288,19.3457,95.314,38.9022,-4.81893,-1.43147,3.02325
2.92,95.8024,19.3873,96.0888,38.7393,-8.14682,-166.394,3.13416
2.94,96.5748,19.4303,96.8624,38.6795,-2.98919,257.882,3.25072
2.96,97.3453,19.4748,97.6341,38.5859,-4.68293,-84.6872,3.37551
2.98,98.1136,19.5209,98.4038,38.485,-5.04471,-18.0889,3.50878
3,98.8804,19.5688,99.1722,38.418,-3.34928,84.7713,3.64848
3.02,99.6441,19.6184,99.9374,38.2623,-7.78595,-221.833,3.80159
3.04,100.407,19.6701,100.702,38.2085,-2.68865,254.865,3.95876
3.06,101.167,19.7237,101.464,38.1261,-4.11913,-71.5239,4.12387
3.08,101.926,19.7796,102.225,38.0523,-3.69231,21.3409,4.29624
3.1,102.685,19.8376,102.986,38.0381,-0.708136,149.209,4.47066
3.12,103.44,19.898,103.744,37.9092,-6.44459,-286.823,4.65291
3.14,104.196,19.9607,104.502,37.9145,0.263648,335.412,4.8356
3.16,104.952,20.0258,105.261,37.9187,0.210548,-2.65497,5.01887
3.18,105.707,20.0934,106.02,37.9397,1.04992,41.9685,5.20128
3.2,106.464,20.1635,106.779,37.9957,2.80026,87.5171,5.37976
3.22,107.221,20.236,107.539,37.9945,-0.0573577,-142.881,5.55497
3.24,107.98,20.3109,108.302,38.1304,6.79552,342.644,5.71922
3.26,108.74,20.3883,109.067,38.2451,5.73155,-53.1986,5.87435
3.28,109.503,20.4679,109.834,38.3551,5.50038,-11.5584,6.02074
3.3,110.268,20.5495,110.603,38.4261,3.55121,-97.4586,6.15737
3.32,111.038,20.6334,111.378,38.7703,17.2117,683.024,6.26888
3.34,111.81,20.7191,112.155,38.8308,3.02416,-709.376,6.3714
3.36,112.586,20.8064,112.935,39.0223,9.57554,327.569,6.45769
3.38,113.366,20.8952,113.72,39.2335,10.5595,49.1994,6.52588
3.4,114.147,20.9853,114.507,39.3537,6.0085,-227.552,6.57954
3.42,114.934,21.0763,115.298,39.5731,10.971,248.127,6.61852
3.44,115.725,21.1683,116.095,39.821,12.3932,71.1085,6.63588
3.46,116.517,21.2608,116.893,39.903,4.10035,-414.643,6.64171
3.48,117.313,21.3535,117.694,40.0652,8.11024,200.494,6.63763
3.5,118.113,21.4464,118.499,40.2541,9.44313,66.6444,6.61678
3.52,118.914,21.5393,119.305,40.3172,3.15914,-314.199,6.58582
3.54,119.718,21.6319,120.115,40.4702,7.64639,224.363,6.5455
3.56,120.524,21.7241,120.926,40.5639,4.68443,-148.098,6.49661
3.58,121.332,21.8157,121.739,40.6386,3.73853,-47.2951,6.44076
3.6,122.14,21.9066,122.553,40.6853,2.3339,-70.2312,6.38038
3.62,122.951,21.9968,123.368,40.7822,4.84643,125.627,6.31102
3.64,123.762,22.0861,124.184,40.7987,0.822535,-201.195,6.23973
3.66,124.574,22.1744,125.001,40.8275,1.44141,30.9436,6.16541
3.68,125.387,22.2617,125.819,40.9066,3.95369,125.614,6.088
3.7,126.2,22.3478,126.636,40.8755,-1.55498,-275.434,6.00843
3.72,127.015,22.4329,127.455,40.9372,3.08632,232.065,5.92729
3.74,127.829,22.5169,128.274,40.9376,0.0203439,-153.299,5.8456
3.76,128.643,22.5997,129.093,40.9343,-0.165424,-9.28838,5.76369
3.78,129.458,22.6813,129.911,40.9276,-0.337246,-8.59113,5.68187
3.8,130.272,22.7618,130.729,40.9177,-0.495265,-7.90093,5.60043
3.82,131.087,22.841,131.547,40.9015,-0.808962,-15.6849,5.51993
3.84,131.9,22.9191,132.365,40.8849,-0.830982,-1.10098,5.44042
3.86,132.715,22.9961,133.184,40.9167,1.59278,121.188,5.36203
3.88,133.529,23.0719,134,40.8473,-3.46972,-253.125,5.28492
3.9,134.343,23.1467,134.818,40.8769,1.47624,247.298,5.20919
3.92,135.156,23.2203,135.635,40.8487,-1.40679,-144.152,5.1355
3.94,135.97,23.2929,136.451,40.8254,-1.1653,12.0748,5.06347
3.96,136.782,23.3644,137.267,40.7989,-1.32669,-8.06988,4.99339
3.98,137.595,23.4348,138.083,40.7714,-1.37464,-2.39751,4.92535
4,138.407,23.5044,138.898,40.7457,-1.28353,4.5555,4.85927
4.02,139.218,23.5729,139.712,40.7111,-1.73209,-22.4277,4.79587
4.04,140.029,23.6404,140.526,40.6835,-1.37925,17.6419,4.73457
4.06,140.839,23.7071,141.339,40.6553,-1.40729,-1.4022,4.67546
4.08,141.65,23.773,142.153,40.689,1.68207,154.468,4.61749
4.1,142.461,23.8382,142.966,40.6476,-2.07128,-187.668,4.55853
4.12,143.277,23.9028,143.784,40.9325,14.2476,815.945,4.47853
4.14,144.102,23.9669,144.612,41.3854,22.6428,419.76,4.35377
4.16,144.937,24.0295,145.449,41.8531,23.3889,37.3035,4.1915
4.18,145.779,24.0901,146.293,42.2241,18.5498,-241.954,3.99572
4.2,146.629,24.1479,147.145,42.5842,18.0017,-27.4048,3.76725
4.22,147.492,24.2027,148.01,43.2275,32.1667,708.251,3.48103
4.24,148.362,24.2535,148.882,43.6061,18.9286,-661.906,3.16474
4.26,149.239,24.2996,149.76,43.9037,14.8789,-202.487,2.82112
4.28,150.122,24.3405,150.644,44.1815,13.8907,-49.4076,2.4519
4.3,151.011,24.3756,151.534,44.5024,16.0487,107.899,2.05777
4.32,151.909,24.4045,152.432,44.9244,21.0976,252.445,1.62111
4.34,152.813,24.4266,153.336,45.2039,13.9732,-356.22,1.16346
4.36,153.721,24.4415,154.244,45.4151,10.5616,-170.583,0.686605
4.38,154.633,24.4486,155.157,45.6131,9.90188,-32.9842,0.19193
4.4,155.55,24.4477,156.073,45.8035,9.51661,-19.2634,-0.31963
4.42,156.471,24.4383,156.994,46.0792,13.7867,213.504,-0.855312
4.44,157.396,24.4201,157.919,46.232,7.64036,-307.316,-1.40397
4.46,158.321,24.393,158.845,46.3071,3.75251,-194.393,-1.96282
4.48,159.25,24.3566,159.774,46.462,7.74557,199.653,-2.52973
4.5,160.179,24.311,160.704,46.5047,2.13875,-280.341,-3.10328
4.52,161.108,24.2559,161.635,46.5418,1.85256,-14.3098,-3.68254
4.54,162.037,24.1913,162.567,46.5759,1.70529,-7.3634,-4.26254
4.56,162.966,24.1174,163.498,46.5811,0.262189,-72.155,-4.84035
4.58,163.892,24.0343,164.429,46.5121,-3.45326,-185.773,-5.41349
4.6,164.816,23.9421,165.357,46.4243,-4.39057,-46.8652,-5.97995
4.62,165.736,23.8411,166.282,46.265,-7.9632,-178.632,-6.53317
4.64,166.652,23.7318,167.205,46.106,-7.94977,0.671314,-7.07299
4.66,167.564,23.6143,168.124,45.9661,-6.99303,47.8371,-7.59641
4.68,168.469,23.4894,169.037,45.6789,-14.3607,-368.381,-8.09917
4.7,169.368,23.3577,169.946,45.4295,-12.4721,94.4282,-8.57572
4.72,170.256,23.2199,170.846,44.9741,-22.7682,-514.807,-9.01664
4.74,171.138,23.0765,171.739,44.6706,-15.1744,379.693,-9.42673
4.76,172.011,22.9284,172.625,44.2844,-19.3116,-206.859,-9.80315
4.78,172.874,22.7762,173.501,43.8131,-23.5644,-212.641,-10.143
4.8,173.728,22.6208,174.369,43.4027,-20.5204,152.201,-10.4433
4.82,174.569,22.4639,175.224,42.7704,-31.6155,-554.755,-10.6849
4.84,175.398,22.3058,176.068,42.1957,-28.7377,143.89,-10.8777
4.86,176.214,22.1476,176.9,41.5625,-31.6593,-146.081,-11.0171
4.88,177.017,21.9904,177.718,40.9151,-32.3668,-35.3759,-11.0982
4.9,177.806,21.8353,178.522,40.2017,-35.6738,-165.349,-11.1159
4.92,178.576,21.6842,179.307,39.2394,-48.1131,-621.965,-11.049
4.94,179.331,21.5373,180.076,38.454,-39.2702,442.145,-10.9139
4.96,180.071,21.3955,180.829,37.6752,-38.9372,16.6473,-10.7077
4.98,180.795,21.2599,181.565,36.8023,-43.6472,-235.497,-10.4273
5,181.503,21.1316,182.285,35.9854,-40.8452,140.101,-10.0698
5.02,182.187,21.0126,182.979,34.7067,-63.9368,-1154.58,-9.60392
5.04,182.853,20.9026,183.654,33.7352,-48.572,768.239,-9.05311
5.06,183.501,20.8024,184.31,32.784,-47.5621,50.4961,-8.41539
5.08,184.129,20.7129,184.945,31.7589,-51.2528,-184.536,-7.68907
5.1,184.739,20.6345,185.559,30.7152,-52.1865,-46.6819,-6.87278
5.12,185.322,20.5685,186.146,29.3675,-67.3856,-759.959,-5.93536
5.14,185.887,20.5144,186.714,28.3741,-49.6668,885.942,-4.90777
5.16,186.432,20.4723,187.26,27.3058,-53.4168,-187.502,-3.79164
5.18,186.958,20.4424,187.787,26.374,-46.5911,341.286,-2.58933
5.2,187.466,20.4248,188.295,25.391,-49.1509,-127.992,-1.30387
5.22,187.951,20.4193,188.781,24.2651,-56.2921,-357.057,0.0833677
5.24,188.421,20.4255,189.251,23.5037,-38.0716,911.023,1.53784
5.26,188.878,20.4434,189.708,22.8538,-32.493,278.933,3.05203
5.28,189.321,20.4728,190.152,22.2255,-31.4155,53.8735,4.61785
5.3,189.754,20.5138,190.587,21.7285,-24.8513,328.213,6.22657
5.32,190.177,20.566,191.013,21.32,-20.4261,221.257,7.87338
5.34,190.596,20.63,191.437,21.1739,-7.30434,656.088,9.53379
5.36,191.011,20.706,191.859,21.1249,-2.45177,242.629,11.1979
5.38,191.425,20.7944,192.283,21.1683,2.17378,231.278,12.8561
5.4,191.84,20.8955,192.709,21.3461,8.89067,335.845,14.4992
5.42,192.261,21.0106,193.145,21.8006,22.7216,691.545,16.1052
5.44,192.685,21.1399,193.589,22.1953,19.7352,-149.318,17.6729
5.46,193.116,21.2839,194.044,22.7205,26.2597,326.223,19.1967
5.48,193.554,21.4428,194.509,23.2706,27.5058,62.3077,20.6715
5.5,193.998,21.617,194.987,23.8764,30.2881,139.113,22.0933
5.52,194.456,21.8091,195.483,24.8297,47.6697,869.079,23.432
5.54,194.923,22.0178,195.994,25.5362,35.3232,-617.323,24.7056
5.56,195.397,22.2428,196.519,26.2699,36.6864,68.158,25.9158
5.58,195.88,22.4839,197.059,26.99,36.0027,-34.1853,27.0633
5.6,196.371,22.7408,197.613,27.6991,35.4552,-27.3733,28.1487
5.62,196.872,23.0155,198.185,28.5675,43.4184,398.16,29.1531
5.64,197.382,23.3052,198.771,29.305,36.8786,-326.988,30.0988
5.66,197.896,23.6097,199.368,29.8886,29.1802,-384.92,30.9871
5.68,198.419,23.929,199.981,30.6302,37.0787,394.925,31.8143
5.7,198.95,24.2638,200.609,31.4107,39.0226,97.1919,32.5716
5.72,199.491,24.6143,201.253,32.21,39.9674,47.2399,33.2568
5.74,200.038,24.9773,201.91,32.8217,30.5829,-469.225,33.8922
5.76,200.589,25.3524,202.576,33.3198,24.9075,-283.768,34.4792
5.78,201.145,25.7391,203.254,33.8927,28.6462,186.936,35.0169
5.8,201.708,26.1375,203.944,34.4899,29.8563,60.5064,35.5022
5.82,202.283,26.5506,204.652,35.3961,45.3125,772.809,35.9099
5.84,202.863,26.9735,205.369,35.8562,23.0048,-1115.39,36.2744
5.86,203.448,27.4055,206.096,36.3713,25.7552,137.52,36.5963
5.88,204.037,27.8467,206.833,36.8216,22.5125,-162.137,36.8733
5.9,204.635,28.2972,207.581,37.4269,30.2646,387.607,37.1003
5.92,205.246,28.7602,208.348,38.323,44.8089,727.213,37.2509
5.94,205.863,29.2306,209.123,38.7782,22.7565,-1102.62,37.3581
5.96,206.486,29.7078,209.908,39.2506,23.6206,43.2071,37.4231
5.98,207.117,30.1915,210.704,39.7623,25.5844,98.1899,37.4438
6,207.757,30.6816,211.51,40.3098,27.3769,89.6237,37.4157
6.02,208.4,31.1731,212.319,40.4709,8.0531,-966.189,37.3761
6.04,209.047,31.667,213.133,40.7007,11.4935,172.02,37.3149
6.06,209.697,32.1616,213.949,40.8005,4.98854,-325.247,37.2425
6.08,210.348,32.6562,214.767,40.8898,4.46583,-26.1359,37.1636
6.1,211.001,33.1508,215.587,40.9857,4.79284,16.3508,37.0771
6.12,211.656,33.6442,216.406,40.9762,-0.476284,-263.456,36.9923
6.14,212.31,34.1366,217.225,40.94,-1.80756,-66.5638,36.9083
6.16,212.964,34.6266,218.042,40.8422,-4.89142,-154.193,36.8338
6.18,213.616,35.1145,218.857,40.7376,-5.23044,-16.9512,36.7702
6.2,214.268,35.6009,219.67,40.666,-3.57925,82.5594,36.7108
6.22,214.913,36.0812,220.474,40.207,-22.9484,-968.457,36.6946
6.24,215.554,36.5593,221.274,40.0003,-10.3374,630.551,36.6923
6.26,216.191,37.0337,222.069,39.7189,-14.0686,-186.561,36.7186
6.28,216.821,37.5035,222.854,39.274,-22.245,-408.822,36.7819
6.3,217.443,37.9688,223.631,38.8234,-22.5299,-14.2424,36.8835
6.32,218.057,38.4304,224.399,38.4222,-20.0624,123.375,37.0247
6.34,218.655,38.8829,225.149,37.5142,-45.3951,-1266.63,37.2434
6.36,219.243,39.331,225.888,36.9422,-28.6006,839.722,37.5127
