"time","x","y","position","velocity","acceleration","jerk","heading"
0,30,147,0,0,0,0,0
0.02,30.1265,147,0.12652,6.326,316.3,15815,8.82431e-05
0.04,30.253,147,0.25304,6.326,-1.13438e-07,-15815,0.000176486
0.06,30.3796,147,0.37956,6.326,5.67102e-08,8.50742e-06,0.000264729
0.08,30.5061,147,0.50608,6.326,8.79297e-12,-2.83507e-06,0.000352972
0.1,30.6326,147,0.6326,6.326,5.67235e-07,2.83613e-05,0.000441216
0.12,30.759,147,0.75902,6.321,-0.250001,-12.5001,0.000529459
0.14,30.8855,147,0.88554,6.326,0.25,25,0.000617702
0.16,31.029,147,1.02897,7.17156,42.278,2101.4,0.000755241
0.18,31.3345,147,1.33451,15.2769,405.269,18149.5,0.00136621
0.2,31.64,147,1.64005,15.2769,5.67163e-07,-20263.4,0.00197718
0.22,31.9455,147,1.94549,15.2719,-0.25,-12.5,0.00258815
0.24,32.3271,147,2.32706,19.0786,190.334,9529.19,0.00378742
0.26,32.7254,147,2.72536,19.9151,41.8234,-7425.51,0.00511613
0.28,33.1464,147,3.14642,21.0532,56.9059,754.122,0.0067196
0.3,33.619,147,3.61903,23.6302,128.852,3597.3,0.00894349
0.32,34.1037,147,4.10368,24.2325,30.1127,-4936.96,0.0113661
0.34,34.6402,147,4.64022,26.8272,129.735,4981.11,0.0146437
0.36,35.1952,147.001,5.19515,27.7466,45.9718,-4188.16,0.0183083
0.38,35.7889,147.001,5.78887,29.6858,96.9593,2549.38,0.0227866
0.4,36.4157,147.001,6.41568,31.3405,82.7328,-711.324,0.0281161
0.42,37.0655,147.001,7.06553,32.4924,57.5971,-1256.78,0.0340576
0.44,37.7597,147.002,7.75968,34.7078,110.768,2658.55,0.0413501
0.46,38.4826,147.002,8.48257,36.1444,71.8299,-1946.91,0.0496682
0.48,39.2339,147.003,9.2339,37.5665,71.1076,-36.1181,0.0590545
0.5,40.0158,147.004,10.0158,39.0956,76.4539,267.317,0.0696819
0.52,40.8381,147.005,10.8381,41.1166,101.052,1229.92,0.0821647
0.54,41.6906,147.006,11.6906,42.6241,75.3748,-1283.88,0.0961898
0.56,42.5743,147.008,12.5743,44.184,77.993,130.908,0.111958
0.58,43.49,147.01,13.49,45.7865,80.1239,106.55,0.129708
0.6,44.438,147.012,14.4381,47.401,80.7267,30.1397,0.149621
0.62,45.4188,147.015,15.4188,49.0373,81.8137,54.3482,0.171839
0.64,46.4322,147.018,16.4322,50.6707,81.6683,-7.27103,0.196558
0.66,47.4783,147.022,17.4783,52.3064,81.7896,6.06581,0.223977
0.68,48.557,147.026,18.557,53.9344,81.3961,-19.6748,0.254299
0.7,49.6683,147.032,19.6683,55.5651,81.5362,7.00497,0.287731
0.72,50.8119,147.038,20.812,57.1827,80.8798,-32.8194,0.324479
0.74,51.9877,147.045,21.9877,58.788,80.2635,-30.8159,0.364754
0.76,53.1977,147.053,23.1978,60.504,85.8012,276.887,0.409061
0.78,54.4419,147.062,24.4421,62.2133,85.4681,-16.6548,0.457692
0.8,55.7181,147.074,25.7183,63.8083,79.7493,-285.941,0.510663
0.82,57.0255,147.086,27.0258,65.3766,78.4116,-66.8878,0.568292
0.84,58.3685,147.1,28.3688,67.1493,88.6373,511.287,0.631372
0.86,59.7444,147.116,29.7448,68.8015,82.611,-301.315,0.699847
0.88,61.1512,147.133,31.1518,70.3474,77.2951,-265.794,0.773647
0.9,62.595,147.154,32.5957,72.1973,92.4914,759.811,0.85426
0.92,64.0696,147.177,34.0704,73.7359,76.9342,-777.858,0.940876
0.94,65.5793,147.203,35.5804,75.4967,88.0359,555.082,1.03478
0.96,67.1212,147.233,37.1225,77.109,80.6154,-371.025,1.13572
0.98,68.6983,147.265,38.7,78.8753,88.3178,385.12,1.24492
1,70.3069,147.302,40.309,80.4492,78.6919,-481.293,1.36204
1.02,71.9349,147.342,41.9375,81.4232,48.7013,-1499.53,1.48749
1.04,73.5641,147.386,43.5673,81.4915,3.41607,-2264.26,1.61906
1.06,75.1948,147.434,45.1987,81.5689,3.87151,22.7719,1.7574
1.08,76.8269,147.486,46.8317,81.6488,3.99295,6.07214,1.90268
1.1,78.4605,147.543,48.4662,81.7264,3.87778,-5.75864,2.0545
1.12,80.0955,147.604,50.1024,81.8104,4.19993,16.1074,2.21413
1.14,81.732,147.669,51.7402,81.8877,3.86638,-16.6773,2.38061
1.16,83.37,147.74,53.3797,81.9759,4.41034,27.1978,2.55483
1.18,85.0096,147.816,55.021,82.0681,4.60829,9.89744,2.73707
1.2,86.6506,147.897,56.664,82.1486,4.02902,-28.9636,2.92668
1.22,88.2933,147.983,58.309,82.2513,5.13468,55.2831,3.1251
1.24,89.9375,148.076,59.9559,82.3407,4.46844,-33.3118,3.33128
1.26,91.5833,148.175,61.6046,82.4357,4.75175,14.1653,3.54606
1.28,93.2306,148.28,63.2553,82.5347,4.95006,9.91524,3.76969
1.3,94.8795,148.393,64.908,82.6378,5.15323,10.1587,4.00169
1.32,96.5301,148.512,66.5629,82.7429,5.25434,5.05562,4.24374
1.34,98.1823,148.638,68.2199,82.8495,5.33018,3.79193,4.49466
1.36,99.836,148.772,69.879,82.9588,5.46447,6.7147,4.75543
1.38,101.491,148.913,71.5401,83.0513,4.62511,-41.9682,5.02663
1.4,103.149,149.063,73.2043,83.2114,8.00494,168.992,5.30754
1.42,104.808,149.221,74.8709,83.3301,5.9345,-103.522,5.60004
1.44,106.468,149.388,76.5396,83.4357,5.28154,-32.6481,5.9028
1.46,108.13,149.564,78.2108,83.5618,6.30433,51.1396,6.21698
1.48,109.793,149.751,79.8847,83.6949,6.65367,17.4669,6.54297
1.5,111.458,149.947,81.5612,83.8238,6.44713,-10.3268,6.88018
1.52,113.125,150.152,83.2408,83.9815,7.88554,71.9203,7.23092
1.54,114.793,150.37,84.9226,84.0876,5.30475,-129.04,7.59365
1.56,116.463,150.598,86.6086,84.2991,10.575,263.513,7.96978
1.58,118.134,150.837,88.2963,84.3839,4.24131,-316.684,8.35977
1.6,119.808,151.09,89.9887,84.6211,11.856,380.733,8.76296
1.62,121.481,151.354,91.6833,84.7299,5.44134,-320.731,9.18209
1.64,123.157,151.631,93.3821,84.9395,10.4814,252.004,9.61562
1.66,124.834,151.922,95.084,85.0948,7.76705,-135.719,10.0663
1.68,126.512,152.227,96.7893,85.2661,8.56435,39.8648,10.5315
1.7,128.191,152.545,98.4984,85.4566,9.52155,47.8602,11.0125
1.72,129.872,152.881,100.212,85.6715,10.746,61.2201,11.5128
1.74,131.553,153.23,101.93,85.8927,11.0623,15.8171,12.0298
1.76,133.235,153.597,103.651,86.0622,8.47232,-129.499,12.5652
1.78,134.918,153.98,105.377,86.2915,11.4673,149.75,13.1203
1.8,136.601,154.382,107.107,86.4916,10.0013,-73.3038,13.6942
1.82,138.285,154.801,108.842,86.7826,14.5537,227.623,14.2899
1.84,139.968,155.239,110.581,86.9568,8.70921,-292.225,14.9049
1.86,141.651,155.697,112.326,87.2374,14.0306,266.07,15.5424
1.88,143.335,156.175,114.076,87.4987,13.0658,-48.2396,16.2041
1.9,145.018,156.676,115.832,87.779,14.014,47.4094,16.8883
1.92,146.699,157.197,117.592,88.019,11.9981,-100.798,17.5959
1.94,148.379,157.741,119.358,88.2935,13.7271,86.4499,18.3276
1.96,150.058,158.31,121.131,88.6339,17.0198,164.638,19.0867
1.98,151.734,158.903,122.909,88.8978,13.1953,-191.226,19.8721
2,153.407,159.521,124.692,89.1787,14.0444,42.4539,20.6813
2.02,155.078,160.165,126.483,89.5434,18.2364,209.599,21.5214
2.04,156.745,160.837,128.28,89.8471,15.1849,-152.572,22.3896
2.06,158.406,161.537,130.083,90.1384,14.5629,-31.101,23.2856
2.08,160.063,162.265,131.893,90.511,18.6284,203.275,24.2108
2.1,161.714,163.024,133.71,90.8359,16.2477,-119.035,25.1655
2.12,163.358,163.814,135.533,91.1887,17.6395,69.5915,26.1523
2.14,164.993,164.634,137.363,91.4739,14.2598,-168.984,27.1651
2.16,166.621,165.489,139.201,91.9158,22.0957,391.795,28.2135
2.18,168.238,166.375,141.046,92.2337,15.8935,-310.111,29.2922
2.2,169.844,167.296,142.897,92.5325,14.9387,-47.744,30.3967
2.22,171.438,168.252,144.755,92.9259,19.6731,236.723,31.5365
2.24,173.017,169.244,146.62,93.2606,16.7362,-146.844,32.7051
2.26,174.581,170.271,148.491,93.5392,13.9291,-140.356,33.9007
2.28,176.129,171.335,150.37,93.9346,19.7668,291.887,35.1257
2.3,177.657,172.435,152.253,94.1554,11.0425,-436.219,36.3774
2.32,179.167,173.573,154.143,94.4993,17.193,307.528,37.6546
2.34,180.653,174.748,156.038,94.7448,12.2774,-245.783,38.9556
2.36,182.118,175.959,157.938,95.0194,13.7283,72.5481,40.2786
2.38,183.556,177.208,159.843,95.228,10.4305,-164.893,41.6214
2.4,184.968,178.493,161.752,95.4596,11.5819,57.5731,42.9817
2.42,186.351,179.812,163.663,95.5623,5.13262,-322.464,44.357
2.44,187.704,181.168,165.579,95.7848,11.1266,299.701,45.7445
2.46,189.024,182.557,167.495,95.8119,1.35336,-488.664,47.1415
2.48,190.312,183.978,169.413,95.9139,5.09823,187.244,48.5442
2.5,191.564,185.432,171.332,95.9327,0.940369,-207.893,49.9502
2.52,192.782,186.916,173.251,95.9529,1.0127,3.6165,51.3559
2.54,193.961,188.429,175.17,95.9257,-1.36297,-118.784,52.7585
2.56,195.102,189.969,177.086,95.8303,-4.76553,-170.128,54.1538
2.58,196.204,191.534,179,95.707,-6.16561,-70.0041,55.5396
2.6,197.267,193.123,180.912,95.6073,-4.98555,59.0031,56.914
2.62,198.289,194.734,182.82,95.3696,-11.888,-345.122,58.2693
2.64,199.272,196.364,184.724,95.1852,-9.21859,133.47,59.609
2.66,200.213,198.014,186.623,94.9701,-10.7528,-76.7112,60.9273
2.68,201.114,199.679,188.516,94.6434,-16.336,-279.159,62.2198
2.7,201.975,201.36,190.404,94.4316,-10.5921,287.194,63.491
2.72,202.797,203.052,192.286,94.0701,-18.0738,-374.084,64.7322
2.74,203.579,204.756,194.16,93.726,-17.207,43.3413,65.9435
2.76,204.323,206.47,196.029,93.4385,-14.3713,141.785,67.127
2.78,205.029,208.192,197.89,93.0429,-19.7827,-270.573,68.2783
2.8,205.698,209.921,199.744,92.6833,-17.9813,90.0701,69.3977
2.82,206.331,211.655,201.59,92.3378,-17.2703,35.5488,70.4847
2.84,206.929,213.394,203.43,91.9526,-19.2615,-99.5559,71.5389
2.86,207.493,215.137,205.261,91.5935,-17.9558,65.2846,72.5573
2.88,208.024,216.881,207.084,91.1496,-22.1938,-211.902,73.5428
2.9,208.525,218.628,208.901,90.8419,-15.3858,340.402,74.4986
2.92,208.994,220.373,210.709,90.3889,-22.6487,-363.145,75.4154
2.94,209.434,222.12,212.51,90.0499,-16.9507,284.897,76.2991
2.96,209.846,223.865,214.303,89.6546,-19.765,-140.714,77.1516
2.98,210.23,225.61,216.09,89.3275,-16.3585,170.324,77.972
3,210.589,227.352,217.869,88.9537,-18.6886,-116.504,78.7615
3.02,210.922,229.091,219.639,88.528,-21.2821,-129.673,79.5151
3.04,211.232,230.828,221.404,88.224,-15.2012,304.04,80.2406
3.06,211.519,232.563,223.162,87.9058,-15.9129,-35.583,80.9356
3.08,211.785,234.293,224.912,87.5133,-19.6204,-185.375,81.5998
3.1,212.03,236.021,226.657,87.2642,-12.4568,358.182,82.2362
3.12,212.255,237.739,228.39,86.6355,-31.4372,-949.023,82.841
3.14,212.458,239.43,230.093,85.1437,-74.5892,-2157.6,83.4122
3.16,212.64,241.08,231.753,83.0119,-106.587,-1599.9,83.9452
3.18,212.805,242.692,233.374,81.0274,-99.2265,368.032,84.4422
3.2,212.952,244.266,234.954,79.0235,-100.193,-48.3217,84.9054
3.22,213.082,245.803,236.498,77.1679,-92.7831,370.496,85.3382
3.24,213.199,247.301,238,75.1207,-102.361,-478.901,85.7398
3.26,213.303,248.764,239.467,73.3396,-89.0536,665.374,86.1158
3.28,213.395,250.186,240.891,71.2307,-105.443,-819.466,86.4631
3.3,213.477,251.573,242.281,69.4793,-87.5723,893.528,86.7863
3.32,213.549,252.924,243.634,67.6574,-91.0927,-176.017,87.0873
3.34,213.613,254.237,244.949,65.7259,-96.5762,-274.173,87.3651
3.36,213.669,255.513,246.226,63.8664,-92.9761,180.004,87.6215
3.38,213.718,256.754,247.468,62.0886,-88.8902,204.294,87.8588
3.4,213.761,257.959,248.673,60.272,-90.8302,-97.0017,88.0779
3.42,213.797,259.129,249.844,58.5189,-87.6564,158.693,88.2799
3.44,213.829,260.264,250.979,56.7764,-87.1225,26.6955,88.4654
3.46,213.857,261.362,252.078,54.9412,-91.7583,-231.79,88.635
3.48,213.881,262.425,253.141,53.169,-88.6114,157.344,88.7898
3.5,213.902,263.453,254.169,51.4085,-88.0257,29.2838,88.9307
3.52,213.919,264.445,255.162,49.6096,-89.9441,-95.9212,89.0587
3.54,213.934,265.403,256.119,47.8701,-86.9755,148.434,89.1746
3.56,213.946,266.324,257.041,46.0918,-88.9157,-97.0116,89.2793
3.58,213.956,267.213,257.929,44.4238,-83.3988,275.847,89.3737
3.6,213.965,268.067,258.784,42.7156,-85.4116,-100.644,89.4586
3.62,213.973,268.888,259.605,41.0671,-82.4233,149.418,89.5349
3.64,213.979,269.68,260.397,39.5805,-74.3292,404.705,89.6036
3.66,213.983,270.431,261.147,37.5244,-102.806,-1423.85,89.663
3.68,213.987,271.146,261.863,35.7939,-86.5261,814.003,89.7153
3.7,213.99,271.836,262.553,34.4835,-65.5182,1050.39,89.7623
3.72,213.993,272.489,263.206,32.6609,-91.1294,-1280.56,89.8029
3.74,213.994,273.103,263.82,30.6892,-98.589,-372.979,89.8372
3.76,213.996,273.7,264.417,29.8587,-41.5251,2853.19,89.8688
3.78,213.997,274.242,264.958,27.0746,-139.204,-4883.93,89.893
3.8,213.998,274.771,265.488,26.4587,-30.7941,5420.48,89.9158
3.82,213.999,275.247,265.963,23.7906,-133.403,-5130.45,89.9326
3.84,213.999,275.717,266.434,23.5349,-12.7863,6030.84,89.9489
3.86,213.999,276.118,266.834,20.018,-175.847,-8153.02,89.9593
3.88,214,276.518,267.235,20.018,0.00313207,8792.49,89.9697
3.9,214,276.866,267.582,17.384,-131.705,-6585.4,89.9771
3.92,214,277.173,267.89,15.359,-101.248,1522.85,89.9823
3.94,214,277.479,268.196,15.3079,-2.55672,4934.56,89.9874
3.96,214,277.735,268.452,12.7942,-125.681,-6156.2,89.9913
3.98,214,277.862,268.579,6.36134,-321.645,-9798.21,89.9923
4,214,277.988,268.705,6.31021,-2.55672,15954.4,89.9932
4.02,214,278.116,268.832,6.36021,2.5,252.836,89.9941
4.04,214,278.242,268.959,6.31134,-2.44328,-247.164,89.9951
4.06,214,278.369,269.086,6.36021,2.44328,244.328,89.996
4.08,214,278.495,269.212,6.31021,-2.5,-247.164,89.9969
4.1,214,278.623,269.339,6.36134,2.55672,252.836,89.9979
